time,x_pos,y_pos,velocity,rotation,action
0.00010,7.58000,4.04000,0.00000,-3.14159,0
0.00020,7.58000,4.04000,0.21672,-3.14159,0
0.07231,7.58131,4.01555,0.30649,-3.14125,0
0.12329,7.58251,3.99122,0.37537,-3.14059,0
0.16492,7.58359,3.96701,0.43344,-3.13980,0
0.20098,7.58455,3.94290,0.48461,-3.13894,0
0.23322,7.58540,3.91892,0.53086,-3.13801,0
0.26266,7.58613,3.89504,0.57339,-3.13705,0
0.28991,7.58675,3.87128,0.61298,-3.13606,0
0.31541,7.58725,3.84763,0.65017,-3.13505,0
0.33944,7.58764,3.82409,0.68534,-3.13401,0
0.36224,7.58791,3.80067,0.71879,-3.13296,0
0.38399,7.58807,3.77735,0.75075,-3.13189,0
0.40480,7.58812,3.75415,0.78140,-3.13081,0
0.42480,7.58805,3.73106,0.81090,-3.12972,0
0.44407,7.58788,3.70809,0.83936,-3.12861,0
0.46269,7.58759,3.68522,0.86689,-3.12750,0
0.48071,7.58718,3.66246,0.89357,-3.12638,0
0.49820,7.58667,3.63982,0.91947,-3.12526,0
0.51520,7.58605,3.61728,0.94467,-3.12412,0
0.53174,7.58532,3.59486,0.96921,-3.12298,0
0.54786,7.58447,3.57255,0.99314,-3.12184,0
0.56360,7.58352,3.55034,1.01652,-3.12068,0
0.57897,7.58246,3.52825,1.03936,-3.11953,0
0.59401,7.58128,3.50626,1.06172,-3.11837,0
0.60873,7.58000,3.48438,1.08361,-3.11720,0
0.62315,7.57862,3.46261,1.10507,-3.11603,0
0.63729,7.57712,3.44095,1.12612,-3.11486,0
0.65117,7.57552,3.41940,1.14678,-3.11368,0
0.66479,7.57380,3.39796,1.16708,-3.11250,0
0.67818,7.57199,3.37662,1.18704,-3.11132,0
0.69135,7.57006,3.35539,1.20666,-3.11013,0
0.70430,7.56804,3.33427,1.22596,-3.10894,0
0.71704,7.56590,3.31326,1.24497,-3.10775,0
0.72960,7.56366,3.29235,1.26370,-3.10655,0
0.74196,7.56132,3.27155,1.28214,-3.10535,0
0.75415,7.55887,3.25085,1.30033,-3.10415,0
0.76617,7.55631,3.23026,1.31827,-3.10295,0
0.77802,7.55366,3.20978,1.33596,-3.10175,0
0.78972,7.55090,3.18940,1.35343,-3.10054,0
0.80127,7.54804,3.16913,1.37067,-3.09933,0
0.81267,7.54507,3.14896,1.38770,-3.09812,0
0.82393,7.54201,3.12889,1.40452,-3.09690,0
0.83505,7.53884,3.10893,1.42114,-3.09569,0
0.84605,7.53557,3.08908,1.43757,-3.09447,0
0.85692,7.53220,3.06933,1.45382,-3.09325,0
0.86767,7.52873,3.04968,1.46988,-3.09203,0
0.87830,7.52516,3.03014,1.48577,-3.09081,0
0.88882,7.52148,3.01070,1.50149,-3.08959,0
0.89923,7.51771,2.99136,1.51705,-3.08836,0
0.90953,7.51384,2.97212,1.53246,-3.08714,0
0.91972,7.50988,2.95299,1.54770,-3.08591,0
0.92982,7.50581,2.93396,1.56280,-3.08468,0
0.93982,7.50165,2.91503,1.57776,-3.08345,0
0.94973,7.49739,2.89621,1.59257,-3.08221,0
0.95954,7.49303,2.87748,1.60725,-3.08098,0
0.96926,7.48857,2.85886,1.62180,-3.07975,0
0.97890,7.48402,2.84033,1.63621,-3.07851,0
0.98845,7.47937,2.82191,1.65051,-3.07727,0
0.99791,7.47463,2.80359,1.66467,-3.07604,0
1.00730,7.46979,2.78537,1.67872,-3.07480,0
1.01661,7.46486,2.76725,1.69265,-3.07356,0
1.02584,7.45983,2.74923,1.70647,-3.07231,0
1.03500,7.45471,2.73130,1.72018,-3.07107,0
1.04409,7.44950,2.71348,1.73378,-3.06983,0
1.05310,7.44419,2.69576,1.74727,-3.06858,0
1.06204,7.43879,2.67813,1.76066,-3.06734,0
1.07092,7.43330,2.66060,1.77395,-3.06609,0
1.07973,7.42771,2.64318,1.78713,-3.06484,0
1.08847,7.42204,2.62585,1.80023,-3.06360,0
1.09715,7.41627,2.60861,1.81323,-3.06235,0
1.10577,7.41041,2.59148,1.82613,-3.06110,0
1.11433,7.40446,2.57444,1.83895,-3.05985,0
1.12283,7.39842,2.55750,1.85167,-3.05859,0
1.13126,7.39229,2.54065,1.86431,-3.05734,0
1.13965,7.38607,2.52391,1.87687,-3.05609,0
1.14797,7.37976,2.50725,1.88934,-3.05483,0
1.15624,7.37336,2.49070,1.90173,-3.05358,0
1.16446,7.36688,2.47424,1.91404,-3.05232,0
1.17263,7.36031,2.45787,1.92627,-3.05107,0
1.18074,7.35365,2.44161,1.93842,-3.04981,0
1.18880,7.34690,2.42543,1.95050,-3.04855,0
1.19681,7.34006,2.40935,1.96250,-3.04729,0
1.20477,7.33314,2.39337,1.97443,-3.04604,0
1.21269,7.32614,2.37748,1.98629,-3.04478,0
1.22056,7.31904,2.36168,1.99808,-3.04352,0
1.22838,7.31187,2.34598,2.00000,-3.04225,0
1.23619,7.30460,2.33037,2.00000,-3.04099,0
1.24400,7.29726,2.31485,2.00000,-3.03971,0
1.25182,7.28983,2.29943,2.00000,-3.03843,0
1.25963,7.28231,2.28410,2.00000,-3.03713,0
1.26745,7.27471,2.26886,2.00000,-3.03584,0
1.27526,7.26703,2.25372,2.00000,-3.03453,0
1.28307,7.25927,2.23866,2.00000,-3.03321,0
1.29089,7.25142,2.22370,2.00000,-3.03189,0
1.29870,7.24350,2.20883,2.00000,-3.03055,0
1.30651,7.23549,2.19405,2.00000,-3.02921,0
1.31433,7.22740,2.17937,2.00000,-3.02787,0
1.32214,7.21923,2.16477,2.00000,-3.02651,0
1.32995,7.21098,2.15026,2.00000,-3.02515,0
1.33777,7.20265,2.13585,2.00000,-3.02377,0
1.34558,7.19424,2.12152,2.00000,-3.02239,0
1.35339,7.18575,2.10729,2.00000,-3.02100,0
1.36121,7.17718,2.09314,2.00000,-3.01961,0
1.36902,7.16854,2.07908,2.00000,-3.01820,0
1.37683,7.15981,2.06511,2.00000,-3.01679,0
1.38465,7.15101,2.05123,2.00000,-3.01537,0
1.39246,7.14213,2.03744,2.00000,-3.01394,0
1.40027,7.13318,2.02374,2.00000,-3.01250,0
1.40809,7.12414,2.01013,2.00000,-3.01106,0
1.41590,7.11504,1.99660,2.00000,-3.00961,0
1.42371,7.10585,1.98316,2.00000,-3.00815,0
1.43153,7.09659,1.96981,2.00000,-3.00668,0
1.43934,7.08726,1.95654,2.00000,-3.00520,0
1.44715,7.07785,1.94337,2.00000,-3.00372,0
1.45497,7.06837,1.93028,2.00000,-3.00222,0
1.46278,7.05881,1.91727,2.00000,-3.00072,0
1.47059,7.04918,1.90435,2.00000,-2.99921,0
1.47841,7.03948,1.89152,2.00000,-2.99770,0
1.48622,7.02971,1.87877,2.00000,-2.99617,0
1.49404,7.01986,1.86611,2.00000,-2.99464,0
1.50185,7.00994,1.85353,2.00000,-2.99310,0
1.50966,6.99995,1.84104,2.00000,-2.99155,0
1.51748,6.98989,1.82863,2.00000,-2.98999,0
1.52529,6.97976,1.81631,2.00000,-2.98842,0
1.53310,6.96956,1.80407,2.00000,-2.98685,0
1.54092,6.95928,1.79191,2.00000,-2.98527,0
1.54873,6.94894,1.77984,2.00000,-2.98368,0
1.55654,6.93853,1.76785,2.00000,-2.98208,0
1.56436,6.92805,1.75595,2.00000,-2.98048,0
1.57217,6.91750,1.74413,2.00000,-2.97886,0
1.57998,6.90688,1.73239,2.00000,-2.97724,0
1.58780,6.89620,1.72073,2.00000,-2.97561,0
1.59561,6.88545,1.70915,2.00000,-2.97397,0
1.60342,6.87463,1.69766,2.00000,-2.97233,0
1.61124,6.86375,1.68625,2.00000,-2.97067,0
1.61905,6.85280,1.67492,2.00000,-2.96901,0
1.62686,6.84178,1.66367,2.00000,-2.96734,0
1.63468,6.83070,1.65250,2.00000,-2.96567,0
1.64249,6.81955,1.64141,2.00000,-2.96398,0
1.65030,6.80834,1.63040,2.00000,-2.96229,0
1.65812,6.79707,1.61948,2.00000,-2.96058,0
1.66593,6.78573,1.60863,2.00000,-2.95887,0
1.67375,6.77432,1.59786,2.00000,-2.95716,0
1.68156,6.76286,1.58717,2.00000,-2.95543,0
1.68937,6.75133,1.57656,2.00000,-2.95369,0
1.69719,6.73974,1.56603,2.00000,-2.95195,0
1.70500,6.72809,1.55558,2.00000,-2.95020,0
1.71281,6.71637,1.54521,2.00000,-2.94844,0
1.72063,6.70460,1.53491,2.00000,-2.94668,0
1.72844,6.69276,1.52469,2.00000,-2.94490,0
1.73625,6.68087,1.51455,2.00000,-2.94312,0
1.74407,6.66891,1.50449,2.00000,-2.94133,0
1.75188,6.65690,1.49451,2.00000,-2.93953,0
1.75969,6.64482,1.48460,2.00000,-2.93773,0
1.76751,6.63269,1.47477,2.00000,-2.93591,0
1.77532,6.62049,1.46501,2.00000,-2.93409,0
1.78313,6.60824,1.45533,2.00000,-2.93226,0
1.79095,6.59594,1.44573,2.00000,-2.93042,0
1.79876,6.58357,1.43620,2.00000,-2.92857,0
1.80657,6.57115,1.42675,2.00000,-2.92672,0
1.81439,6.55867,1.41737,2.00000,-2.92485,0
1.82220,6.54614,1.40807,2.00000,-2.92298,0
1.83002,6.53355,1.39884,2.00000,-2.92111,0
1.83783,6.52090,1.38969,2.00000,-2.91922,0
1.84564,6.50820,1.38061,2.00000,-2.91732,0
1.85346,6.49544,1.37160,2.00000,-2.91542,0
1.86127,6.48263,1.36267,2.00000,-2.91351,0
1.86908,6.46977,1.35381,2.00000,-2.91159,0
1.87690,6.45685,1.34503,2.00000,-2.90966,0
1.88471,6.44388,1.33631,2.00000,-2.90773,0
1.89252,6.43086,1.32768,2.00000,-2.90578,0
1.90034,6.41778,1.31911,2.00000,-2.90383,0
1.90815,6.40466,1.31061,2.00000,-2.90187,0
1.91596,6.39148,1.30219,2.00000,-2.89991,0
1.92378,6.37825,1.29384,2.00000,-2.89793,0
1.93159,6.36497,1.28556,2.00000,-2.89595,0
1.93940,6.35164,1.27735,2.00000,-2.89396,0
1.94722,6.33825,1.26921,2.00000,-2.89196,0
1.95503,6.32482,1.26115,2.00000,-2.88995,0
1.96284,6.31134,1.25315,2.00000,-2.88793,0
1.97066,6.29781,1.24522,2.00000,-2.88591,0
1.97847,6.28424,1.23737,2.00000,-2.88388,0
1.98628,6.27061,1.22958,2.00000,-2.88184,0
1.99410,6.25694,1.22186,2.00000,-2.87979,0
2.00191,6.24322,1.21421,2.00000,-2.87774,0
2.00973,6.22945,1.20664,2.00000,-2.87567,0
2.01754,6.21563,1.19913,2.00000,-2.87360,0
2.02535,6.20177,1.19168,2.00000,-2.87152,0
2.03317,6.18787,1.18431,2.00000,-2.86943,0
2.04098,6.17391,1.17700,2.00000,-2.86734,0
2.04879,6.15992,1.16977,2.00000,-2.86523,0
2.05661,6.14587,1.16259,2.00000,-2.86312,0
2.06442,6.13179,1.15549,2.00000,-2.86100,0
2.07223,6.11766,1.14845,2.00000,-2.85887,0
2.08005,6.10349,1.14148,2.00000,-2.85674,0
2.08786,6.08927,1.13458,2.00000,-2.85459,0
2.09567,6.07501,1.12774,2.00000,-2.85244,0
2.10349,6.06071,1.12097,2.00000,-2.85028,0
2.11130,6.04636,1.11427,2.00000,-2.84811,0
2.11911,6.03198,1.10763,2.00000,-2.84593,0
2.12693,6.01755,1.10105,2.00000,-2.84375,0
2.13474,6.00309,1.09454,2.00000,-2.84156,0
2.14255,5.98858,1.08810,2.00000,-2.83936,0
2.15037,5.97403,1.08172,2.00000,-2.83715,0
2.15818,5.95944,1.07540,2.00000,-2.83493,0
2.16599,5.94481,1.06915,2.00000,-2.83271,0
2.17381,5.93015,1.06296,2.00000,-2.83047,0
2.18162,5.91544,1.05683,2.00000,-2.82823,0
2.18944,5.90070,1.05077,2.00000,-2.82599,0
2.19725,5.88592,1.04477,2.00000,-2.82373,0
2.20506,5.87110,1.03884,2.00000,-2.82146,0
2.21288,5.85625,1.03296,2.00000,-2.81919,0
2.22069,5.84135,1.02715,2.00000,-2.81691,0
2.22850,5.82643,1.02140,2.00000,-2.81462,0
2.23632,5.81146,1.01572,2.00000,-2.81232,0
2.24413,5.79646,1.01009,2.00000,-2.81002,0
2.25194,5.78143,1.00452,2.00000,-2.80771,0
2.25976,5.76636,0.99902,2.00000,-2.80539,0
2.26757,5.75126,0.99358,2.00000,-2.80306,0
2.27538,5.73612,0.98819,2.00000,-2.80072,0
2.28320,5.72094,0.98287,2.00000,-2.79837,0
2.29101,5.70574,0.97761,2.00000,-2.79602,0
2.29882,5.69050,0.97241,2.00000,-2.79366,0
2.30664,5.67523,0.96726,2.00000,-2.79129,0
2.31445,5.65993,0.96218,2.00000,-2.78891,0
2.32226,5.64460,0.95715,2.00000,-2.78653,0
2.33008,5.62923,0.95219,2.00000,-2.78413,0
2.33789,5.61384,0.94728,2.00000,-2.78173,0
2.34570,5.59841,0.94243,2.00000,-2.77932,0
2.35352,5.58295,0.93764,2.00000,-2.77691,0
2.36133,5.56747,0.93291,2.00000,-2.77448,0
2.36914,5.55195,0.92823,2.00000,-2.77205,0
2.37696,5.53641,0.92361,2.00000,-2.76960,0
2.38477,5.52083,0.91905,2.00000,-2.76715,0
2.39258,5.50523,0.91454,2.00000,-2.76470,0
2.40040,5.48960,0.91010,2.00000,-2.76223,0
2.40821,5.47395,0.90570,2.00000,-2.75976,0
2.41603,5.45826,0.90137,2.00000,-2.75728,0
2.42384,5.44255,0.89709,2.00000,-2.75479,0
2.43165,5.42682,0.89286,2.00000,-2.75229,0
2.43947,5.41105,0.88869,2.00000,-2.74978,0
2.44728,5.39526,0.88458,2.00000,-2.74727,0
2.45509,5.37945,0.88052,2.00000,-2.74475,0
2.46291,5.36361,0.87651,2.00000,-2.74222,0
2.47072,5.34775,0.87256,2.00000,-2.73968,0
2.47853,5.33186,0.86867,2.00000,-2.73713,0
2.48635,5.31595,0.86482,2.00000,-2.73458,0
2.49416,5.30002,0.86103,2.00000,-2.73202,0
2.50197,5.28406,0.85730,2.00000,-2.72944,0
2.50979,5.26808,0.85361,2.00000,-2.72687,0
2.51760,5.25208,0.84998,2.00000,-2.72428,0
2.52541,5.23606,0.84641,2.00000,-2.72169,0
2.53323,5.22001,0.84288,2.00000,-2.71908,0
2.54104,5.20394,0.83941,2.00000,-2.71647,0
2.54885,5.18786,0.83599,2.00000,-2.71385,0
2.55667,5.17175,0.83262,2.00000,-2.71123,0
2.56448,5.15563,0.82930,2.00000,-2.70859,0
2.57229,5.13948,0.82603,2.00000,-2.70595,0
2.58011,5.12332,0.82281,2.00000,-2.70330,0
2.58792,5.10713,0.81965,2.00000,-2.70064,0
2.59573,5.09093,0.81653,2.00000,-2.69797,0
2.60355,5.07471,0.81346,2.00000,-2.69530,0
2.61136,5.05847,0.81045,2.00000,-2.69262,0
2.61918,5.04222,0.80748,2.00000,-2.68993,0
2.62699,5.02595,0.80457,2.00000,-2.68723,0
2.63480,5.00966,0.80170,2.00000,-2.68452,0
2.64262,4.99336,0.79888,2.00000,-2.68180,0
2.65043,4.97704,0.79611,2.00000,-2.67908,0
2.65824,4.96070,0.79339,2.00000,-2.67908,0
2.66606,4.94435,0.79071,2.00000,-2.67906,0
2.67387,4.92799,0.78808,2.00000,-2.67904,0
2.68168,4.91161,0.78551,2.00000,-2.67902,0
2.68950,4.89522,0.78297,2.00000,-2.67898,0
2.69731,4.87881,0.78049,2.00000,-2.67894,0
2.70512,4.86240,0.77805,2.00000,-2.67888,0
2.71294,4.84597,0.77566,2.00000,-2.67882,0
2.72075,4.82952,0.77332,2.00000,-2.67875,0
2.72856,4.81307,0.77102,2.00000,-2.67868,0
2.73638,4.79660,0.76877,2.00000,-2.67859,0
2.74419,4.78013,0.76656,2.00000,-2.67850,0
2.75200,4.76364,0.76440,2.00000,-2.67840,0
2.75982,4.74714,0.76228,2.00000,-2.67829,0
2.76763,4.73063,0.76021,2.00000,-2.67818,0
2.77545,4.71411,0.75818,2.00000,-2.67805,0
2.78326,4.69759,0.75620,2.00000,-2.67792,0
2.79107,4.68105,0.75426,2.00000,-2.67778,0
2.79889,4.66451,0.75237,2.00000,-2.67763,0
2.80670,4.64796,0.75052,2.00000,-2.67747,0
2.81451,4.63140,0.74871,2.00000,-2.67731,0
2.82233,4.61483,0.74694,2.00000,-2.67713,0
2.83014,4.59826,0.74522,2.00000,-2.67695,0
2.83795,4.58168,0.74354,2.00000,-2.67677,0
2.84577,4.56509,0.74191,2.00000,-2.67657,0
2.85358,4.54850,0.74031,2.00000,-2.67636,0
2.86139,4.53190,0.73876,2.00000,-2.67615,0
2.86921,4.51530,0.73725,2.00000,-2.67593,0
2.87702,4.49870,0.73578,2.00000,-2.67570,0
2.88483,4.48209,0.73435,2.00000,-2.67546,0
2.89265,4.46547,0.73296,2.00000,-2.67522,0
2.90046,4.44885,0.73162,2.00000,-2.67496,0
2.90827,4.43223,0.73031,2.00000,-2.67470,0
2.91609,4.41561,0.72904,2.00000,-2.67443,0
2.92390,4.39898,0.72782,2.00000,-2.67416,0
2.93171,4.38236,0.72663,2.00000,-2.67387,0
2.93953,4.36573,0.72548,2.00000,-2.67358,0
2.94734,4.34910,0.72438,2.00000,-2.67328,0
2.95516,4.33247,0.72331,2.00000,-2.67297,0
2.96297,4.31584,0.72228,2.00000,-2.67265,0
2.97078,4.29920,0.72128,2.00000,-2.67232,0
2.97860,4.28257,0.72033,2.00000,-2.67199,0
2.98641,4.26594,0.71941,2.00000,-2.67165,0
2.99422,4.24932,0.71853,2.00000,-2.67130,0
3.00204,4.23269,0.71769,2.00000,-2.67094,0
3.00985,4.21606,0.71689,2.00000,-2.67057,0
3.01766,4.19944,0.71612,2.00000,-2.67020,0
3.02548,4.18282,0.71539,2.00000,-2.66982,0
3.03329,4.16620,0.71470,2.00000,-2.66943,0
3.04110,4.14959,0.71404,2.00000,-2.66903,0
3.04892,4.13298,0.71342,2.00000,-2.66862,0
3.05673,4.11637,0.71283,2.00000,-2.66821,0
3.06454,4.09977,0.71228,2.00000,-2.66779,0
3.07236,4.08318,0.71176,2.00000,-2.66736,0
3.08017,4.06659,0.71128,2.00000,-2.66692,0
3.08798,4.05000,0.71084,2.00000,-2.66647,0
3.09580,4.03343,0.71043,2.00000,-2.66602,0
3.10361,4.01685,0.71005,2.00000,-2.66556,0
3.11143,4.00029,0.70971,2.00000,-2.66509,0
3.11924,3.98373,0.70940,2.00000,-2.66461,0
3.12705,3.96718,0.70912,2.00000,-2.66412,0
3.13487,3.95064,0.70888,2.00000,-2.66363,0
3.14268,3.93411,0.70867,2.00000,-2.66313,0
3.15049,3.91758,0.70849,2.00000,-2.66262,0
3.15831,3.90107,0.70834,2.00000,-2.66210,0
3.16612,3.88456,0.70823,2.00000,-2.66157,0
3.17393,3.86806,0.70815,2.00000,-2.66104,0
3.18175,3.85158,0.70810,2.00000,-2.66049,0
3.18956,3.83510,0.70808,2.00000,-2.65994,0
3.19737,3.81864,0.70810,2.00000,-2.65938,0
3.20519,3.80219,0.70814,2.00000,-2.65882,0
3.21300,3.78575,0.70822,2.00000,-2.65824,0
3.22081,3.76932,0.70832,2.00000,-2.65766,0
3.22863,3.75290,0.70846,2.00000,-2.65707,0
3.23644,3.73650,0.70862,2.00000,-2.65647,0
3.24425,3.72011,0.70882,2.00000,-2.65586,0
3.25207,3.70374,0.70904,2.00000,-2.65525,0
3.25988,3.68738,0.70930,2.00000,-2.65462,0
3.26770,3.67103,0.70958,2.00000,-2.65399,0
3.27551,3.65470,0.70989,2.00000,-2.65335,0
3.28332,3.63839,0.71023,2.00000,-2.65271,0
3.29114,3.62209,0.71060,2.00000,-2.65205,0
3.29895,3.60580,0.71100,2.00000,-2.65139,0
3.30676,3.58953,0.71142,2.00000,-2.65072,0
3.31458,3.57328,0.71187,2.00000,-2.65004,0
3.32239,3.55705,0.71235,2.00000,-2.64935,0
3.33020,3.54083,0.71286,2.00000,-2.64865,0
3.33802,3.52464,0.71339,2.00000,-2.64795,0
3.34583,3.50846,0.71395,2.00000,-2.64724,0
3.35364,3.49230,0.71454,2.00000,-2.64652,0
3.36146,3.47615,0.71515,2.00000,-2.64579,0
3.36927,3.46003,0.71578,2.00000,-2.64506,0
3.37708,3.44393,0.71645,2.00000,-2.64431,0
3.38490,3.42785,0.71714,2.00000,-2.64356,0
3.39271,3.41179,0.71785,2.00000,-2.64280,0
3.40052,3.39575,0.71859,2.00000,-2.64203,0
3.40834,3.37973,0.71935,2.00000,-2.64126,0
3.41615,3.36373,0.72013,2.00000,-2.64047,0
3.42396,3.34776,0.72094,2.00000,-2.63968,0
3.43178,3.33180,0.72178,2.00000,-2.63888,0
3.43959,3.31588,0.72264,2.00000,-2.63807,0
3.44741,3.29997,0.72352,2.00000,-2.63726,0
3.45522,3.28409,0.72442,2.00000,-2.63643,0
3.46303,3.26823,0.72535,2.00000,-2.63560,0
3.47085,3.25240,0.72630,2.00000,-2.63476,0
3.47866,3.23659,0.72727,2.00000,-2.63391,0
3.48647,3.22081,0.72826,2.00000,-2.63306,0
3.49429,3.20505,0.72928,2.00000,-2.63219,0
3.50210,3.18932,0.73031,2.00000,-2.63132,0
3.50991,3.17361,0.73137,2.00000,-2.63044,0
3.51773,3.15793,0.73245,2.00000,-2.62955,0
3.52554,3.14228,0.73355,2.00000,-2.62866,0
3.53335,3.12666,0.73467,2.00000,-2.62775,0
3.54117,3.11106,0.73581,2.00000,-2.62684,0
3.54898,3.09550,0.73697,2.00000,-2.62592,0
3.55679,3.07996,0.73815,2.00000,-2.62499,0
3.56461,3.06445,0.73935,2.00000,-2.62405,0
3.57242,3.04897,0.74057,2.00000,-2.62311,0
3.58024,3.03352,0.74181,2.00000,-2.62216,0
3.58805,3.01810,0.74307,2.00000,-2.62119,0
3.59586,3.00271,0.74434,2.00000,-2.62023,0
3.60368,2.98735,0.74564,2.00000,-2.61925,0
3.61149,2.97203,0.74695,2.00000,-2.61826,0
3.61930,2.95673,0.74828,2.00000,-2.61727,0
3.62712,2.94147,0.74963,2.00000,-2.61627,0
3.63493,2.92624,0.75099,2.00000,-2.61526,0
3.64274,2.91104,0.75237,2.00000,-2.61424,0
3.65056,2.89588,0.75377,2.00000,-2.61322,0
3.65837,2.88075,0.75519,2.00000,-2.61219,0
3.66618,2.86565,0.75662,2.00000,-2.61115,0
3.67400,2.85059,0.75807,2.00000,-2.61010,0
3.68181,2.83556,0.75953,2.00000,-2.60904,0
3.68962,2.82057,0.76101,2.00000,-2.60797,0
3.69744,2.80561,0.76250,2.00000,-2.60690,0
3.70525,2.79069,0.76401,2.00000,-2.60582,0
3.71306,2.77581,0.76554,2.00000,-2.60473,0
3.72088,2.76096,0.76708,2.00000,-2.60363,0
3.72869,2.74615,0.76863,2.00000,-2.60253,0
3.73650,2.73138,0.77020,2.00000,-2.60141,0
3.74432,2.71664,0.77178,2.00000,-2.60029,0
3.75213,2.70195,0.77337,2.00000,-2.59916,0
3.75995,2.68729,0.77498,2.00000,-2.59802,0
3.76776,2.67267,0.77660,2.00000,-2.59688,0
3.77557,2.65809,0.77823,2.00000,-2.59572,0
3.78339,2.64355,0.77988,2.00000,-2.59456,0
3.79120,2.62905,0.78154,2.00000,-2.59339,0
3.79901,2.61459,0.78321,2.00000,-2.59222,0
3.80683,2.60018,0.78489,2.00000,-2.59103,0
3.81464,2.58580,0.78659,2.00000,-2.58984,0
3.82245,2.57147,0.78829,2.00000,-2.58863,0
3.83027,2.55717,0.79001,2.00000,-2.58742,0
3.83808,2.54292,0.79174,2.00000,-2.58621,0
3.84589,2.52872,0.79347,2.00000,-2.58498,0
3.85371,2.51455,0.79522,2.00000,-2.58375,0
3.86152,2.50043,0.79698,2.00000,-2.58250,0
3.86933,2.48636,0.79875,2.00000,-2.58125,0
3.87715,2.47232,0.80053,2.00000,-2.57999,0
3.88496,2.45834,0.80231,2.00000,-2.57873,0
3.89277,2.44439,0.80411,2.00000,-2.57745,0
3.90059,2.43050,0.80592,2.00000,-2.57617,0
3.90840,2.41665,0.80773,2.00000,-2.57488,0
3.91622,2.40284,0.80955,2.00000,-2.57358,0
3.92403,2.38908,0.81138,2.00000,-2.57228,0
3.93184,2.37537,0.81322,2.00000,-2.57096,0
3.93966,2.36171,0.81507,2.00000,-2.56964,0
3.94747,2.34810,0.81692,2.00000,-2.56831,0
3.95528,2.33453,0.81878,2.00000,-2.56697,0
3.96310,2.32101,0.82065,2.00000,-2.56562,0
3.97091,2.30754,0.82252,2.00000,-2.56427,0
3.97872,2.29412,0.82440,2.00000,-2.56291,0
3.98654,2.28075,0.82629,2.00000,-2.56154,0
3.99435,2.26743,0.82818,2.00000,-2.56016,0
4.00216,2.25416,0.83008,2.00000,-2.55877,0
4.00998,2.24094,0.83198,2.00000,-2.55738,0
4.01779,2.22777,0.83389,2.00000,-2.55597,0
4.02560,2.21466,0.83580,2.00000,-2.55456,0
4.03342,2.20159,0.83772,2.00000,-2.55314,0
4.04123,2.18858,0.83964,2.00000,-2.55172,0
4.04904,2.17562,0.84157,2.00000,-2.55028,0
4.05686,2.16272,0.84350,2.00000,-2.54884,0
4.06467,2.14986,0.84543,2.00000,-2.54739,0
4.07248,2.13707,0.84737,1.99808,-2.54593,0
4.08031,2.12432,0.84931,1.98629,-2.54446,0
4.08817,2.11163,0.85125,1.97443,-2.54297,0
4.09609,2.09900,0.85320,1.96250,-2.54147,0
4.10405,2.08642,0.85515,1.95050,-2.53995,0
4.11206,2.07390,0.85710,1.93842,-2.53841,0
4.12013,2.06143,0.85905,1.92627,-2.53686,0
4.12824,2.04902,0.86101,1.91404,-2.53528,0
4.13640,2.03667,0.86296,1.90173,-2.53369,0
4.14462,2.02437,0.86492,1.88934,-2.53208,0
4.15289,2.01214,0.86688,1.87687,-2.53044,0
4.16122,1.99996,0.86883,1.86431,-2.52879,0
4.16960,1.98784,0.87079,1.85167,-2.52712,0
4.17804,1.97577,0.87275,1.83895,-2.52543,0
