time,x_pos,y_pos,velocity,rotation,action
0.00010,7.57500,4.02500,0.00000,-3.14159,0
0.00020,7.57500,4.02500,0.35458,-3.14159,0
0.04447,7.55858,4.02501,0.50145,-3.14159,0
0.07578,7.54234,4.02502,0.61415,-3.14159,0
0.10134,7.52629,4.02504,0.70916,-3.14159,0
0.12348,7.51041,4.02507,0.79287,-3.14159,0
0.14328,7.49469,4.02512,0.86854,-3.14159,0
0.16135,7.47915,4.02517,0.93813,-3.14159,0
0.17808,7.46376,4.02522,1.00291,-3.14159,0
0.19374,7.44853,4.02529,1.06374,-3.14159,0
0.20849,7.43345,4.02537,1.12128,-3.14159,0
0.22249,7.41851,4.02545,1.17601,-3.14159,0
0.23584,7.40372,4.02554,1.22831,-3.14159,0
0.24862,7.38906,4.02564,1.27846,-3.14159,0
0.26090,7.37454,4.02575,1.32672,-3.14159,0
0.27274,7.36014,4.02587,1.37329,-3.14159,0
0.28417,7.34586,4.02599,1.41833,-3.14159,0
0.29523,7.33170,4.02612,1.46198,-3.14159,0
0.30597,7.31765,4.02626,1.50436,-3.14159,0
0.31641,7.30371,4.02641,1.54558,-3.14159,0
0.32656,7.28987,4.02656,1.58574,-3.14159,0
0.33646,7.27613,4.02672,1.62490,-3.14159,0
0.34613,7.26249,4.02689,1.66313,-3.14159,0
0.35556,7.24893,4.02707,1.70051,-3.14159,0
0.36480,7.23546,4.02725,1.73709,-3.14159,0
0.37383,7.22206,4.02744,1.77291,-3.14159,0
0.38269,7.20874,4.02763,1.80802,-3.14159,0
0.39137,7.19549,4.02783,1.84246,-3.14159,0
0.39989,7.18230,4.02804,1.87627,-3.14159,0
0.40826,7.16917,4.02825,1.90948,-3.14159,0
0.41648,7.15610,4.02847,1.94212,-3.14159,0
0.42456,7.14308,4.02870,1.97423,-3.14159,0
0.43251,7.13010,4.02893,2.00582,-3.14159,0
0.44034,7.11716,4.02917,2.03692,-3.14159,0
0.44805,7.10426,4.02941,2.06755,-3.14159,0
0.45564,7.09139,4.02966,2.09773,-3.14159,0
0.46312,7.07855,4.02991,2.12749,-3.14159,0
0.47050,7.06572,4.03017,2.15683,-3.14159,0
0.47778,7.05292,4.03044,2.18579,-3.14159,0
0.48496,7.04012,4.03071,2.21436,-3.14159,0
0.49205,7.02734,4.03098,2.24257,-3.14159,0
0.49905,7.01455,4.03126,2.27043,-3.14159,0
0.50597,7.00176,4.03154,2.29795,-3.14159,0
0.51280,6.98897,4.03183,2.32515,-3.14159,0
0.51955,6.97616,4.03212,2.35203,-3.14159,0
0.52622,6.96334,4.03242,2.37860,-3.14159,0
0.53282,6.95049,4.03272,2.40489,-3.14159,0
0.53935,6.93762,4.03303,2.43089,-3.14159,0
0.54581,6.92472,4.03334,2.45661,-3.14159,0
0.55220,6.91178,4.03365,2.48207,-3.14159,0
0.55852,6.89880,4.03397,2.50727,-3.14159,0
0.56479,6.88577,4.03429,2.53222,-3.14159,0
0.57099,6.87270,4.03461,2.55692,-3.14159,0
0.57712,6.85957,4.03494,2.58139,-3.14159,0
0.58321,6.84638,4.03527,2.60563,-3.14159,0
0.58923,6.83312,4.03560,2.58139,-3.14159,0
0.59531,6.81979,4.03594,2.55692,-3.14159,0
0.60145,6.80639,4.03627,2.53222,-3.14159,0
0.60765,6.79291,4.03662,2.50727,-3.14159,0
0.61391,6.77935,4.03696,2.48207,-3.14159,0
0.62024,6.76570,4.03731,2.45661,-3.14159,0
0.62663,6.75195,4.03766,2.43089,-3.14159,0
0.63309,6.73811,4.03801,2.40489,-3.14159,0
0.63961,6.72416,4.03836,2.37860,-3.14159,0
0.64621,6.71011,4.03872,2.35203,-3.14159,0
0.65289,6.69594,4.03908,2.32515,-3.14159,0
0.65964,6.68166,4.03944,2.29795,-3.14159,0
0.66647,6.66725,4.03980,2.27043,-3.14159,0
0.67338,6.65272,4.04016,2.24257,-3.14159,0
0.68038,6.63805,4.04052,2.21436,-3.14159,0
0.68747,6.62325,4.04089,2.18579,-3.14159,0
0.69466,6.60830,4.04126,2.15683,-3.14159,0
0.70193,6.59321,4.04162,2.12749,-3.14159,0
0.70931,6.57797,4.04199,2.09773,-3.14159,0
0.71680,6.56258,4.04236,2.06755,-3.14159,0
0.72439,6.54702,4.04273,2.03692,-3.14159,0
0.73210,6.53130,4.04310,2.00582,-3.14159,0
0.73992,6.51540,4.04348,1.97423,-3.14159,0
0.74787,6.49934,4.04385,1.94212,-3.14159,0
0.75596,6.48309,4.04422,1.90948,-3.14159,0
0.76418,6.46666,4.04459,1.87627,-3.14159,0
0.77255,6.45004,4.04496,1.84246,-3.14159,0
0.78107,6.43322,4.04534,1.80802,-3.14159,0
0.78975,6.41621,4.04571,1.77291,-3.14159,0
0.79860,6.39899,4.04608,1.73709,-3.14159,0
0.80764,6.38157,4.04645,1.70051,-3.14159,0
0.81687,6.36393,4.04682,1.66313,-3.14159,0
0.82631,6.34607,4.04719,1.62490,-3.14159,0
0.83597,6.32799,4.04756,1.58574,-3.14159,0
0.84587,6.30968,4.04793,1.54558,-3.14159,0
0.85603,6.29114,4.04830,1.50436,-3.14159,0
0.86646,6.27237,4.04866,1.46198,-3.14159,0
0.87720,6.25335,4.04903,1.41833,-3.14159,0
0.88827,6.23408,4.04939,1.37329,-3.14159,0
0.89970,6.21456,4.04975,1.32672,-3.14159,0
0.91153,6.19479,4.05011,1.27846,-3.14159,0
0.92381,6.17476,4.05047,1.22831,-3.14159,0
0.93659,6.15446,4.05082,1.17601,-3.14159,0
0.94994,6.13389,4.05118,1.12128,-3.14159,0
0.96394,6.11304,4.05153,1.06374,-3.14159,0
0.97870,6.09191,4.05188,1.00291,-3.14159,0
0.99435,6.07050,4.05223,0.93813,-3.14159,0
1.01109,6.04880,4.05257,0.86854,-3.14159,0
1.02916,6.02680,4.05292,0.79287,-3.14159,0
1.04896,6.00451,4.05326,0.70916,-3.14159,0
1.07110,5.98191,4.05359,0.61415,-3.14159,0
1.09666,5.95900,4.05393,0.50145,-3.14159,0
1.12796,5.93578,4.05426,0.35458,-3.14159,0
1.21651,5.86418,4.05523,0.00000,-3.14159,36880
1.21661,5.86418,4.05523,0.35458,-3.14159,0
1.26074,5.87395,4.03799,0.50145,-3.14103,0
1.29194,5.88348,4.02082,0.61415,-3.13995,0
1.31741,5.89277,4.00373,0.70916,-3.13865,0
1.33948,5.90181,3.98670,0.79287,-3.13722,0
1.35921,5.91061,3.96974,0.86854,-3.13571,0
1.37723,5.91918,3.95286,0.93813,-3.13413,0
1.39390,5.92751,3.93604,1.00291,-3.13250,0
1.40950,5.93559,3.91929,1.06374,-3.13083,0
1.42421,5.94345,3.90261,1.12128,-3.12913,0
1.43817,5.95106,3.88600,1.17601,-3.12740,0
1.45147,5.95845,3.86946,1.22831,-3.12564,0
1.46421,5.96560,3.85299,1.27846,-3.12387,0
1.47645,5.97251,3.83659,1.32672,-3.12207,0
1.48824,5.97920,3.82025,1.37329,-3.12026,0
1.49964,5.98565,3.80399,1.41833,-3.11844,0
1.51067,5.99188,3.78779,1.46198,-3.11660,0
1.52137,5.99788,3.77166,1.50436,-3.11474,0
1.53177,6.00365,3.75559,1.54558,-3.11288,0
1.54189,6.00920,3.73960,1.58574,-3.11101,0
1.55176,6.01452,3.72367,1.62490,-3.10912,0
1.56139,6.01961,3.70781,1.66313,-3.10723,0
1.57080,6.02449,3.69202,1.70051,-3.10533,0
1.58000,6.02914,3.67630,1.73709,-3.10342,0
1.58901,6.03357,3.66064,1.77291,-3.10151,0
1.59783,6.03778,3.64505,1.80802,-3.09959,0
1.60648,6.04178,3.62952,1.84246,-3.09766,0
1.61498,6.04555,3.61406,1.87627,-3.09572,0
1.62332,6.04911,3.59867,1.90948,-3.09378,0
1.63151,6.05245,3.58334,1.94212,-3.09184,0
1.63957,6.05558,3.56808,1.97423,-3.08989,0
1.64749,6.05849,3.55289,2.00582,-3.08793,0
1.65529,6.06119,3.53776,2.03692,-3.08597,0
1.66297,6.06368,3.52269,2.06755,-3.08401,0
1.67054,6.06596,3.50769,2.09773,-3.08204,0
1.67800,6.06803,3.49276,2.12749,-3.08007,0
1.68535,6.06989,3.47789,2.15683,-3.07809,0
1.69261,6.07155,3.46309,2.18579,-3.07611,0
1.69977,6.07299,3.44835,2.21436,-3.07413,0
1.70683,6.07424,3.43367,2.24257,-3.07214,0
1.71381,6.07527,3.41906,2.27043,-3.07015,0
1.72070,6.07611,3.40452,2.29795,-3.06815,0
1.72751,6.07674,3.39004,2.32515,-3.06616,0
1.73424,6.07717,3.37562,2.35203,-3.06416,0
1.74089,6.07740,3.36126,2.37860,-3.06215,0
1.74747,6.07743,3.34697,2.40489,-3.06015,0
1.75397,6.07726,3.33274,2.43089,-3.05814,0
1.76041,6.07690,3.31858,2.45661,-3.05613,0
1.76678,6.07633,3.30447,2.48207,-3.05412,0
1.77308,6.07558,3.29043,2.50727,-3.05210,0
1.77932,6.07463,3.27646,2.53222,-3.05008,0
1.78550,6.07348,3.26254,2.55692,-3.04806,0
1.79162,6.07215,3.24869,2.58139,-3.04604,0
1.79768,6.07062,3.23490,2.60563,-3.04402,0
1.80369,6.06890,3.22117,2.62965,-3.04199,0
1.80964,6.06700,3.20751,2.65344,-3.03996,0
1.81554,6.06491,3.19390,2.67703,-3.03793,0
1.82138,6.06263,3.18036,2.70041,-3.03590,0
1.82717,6.06016,3.16688,2.72359,-3.03386,0
1.83292,6.05751,3.15346,2.74658,-3.03183,0
1.83862,6.05467,3.14010,2.76937,-3.02979,0
1.84427,6.05165,3.12680,2.79198,-3.02775,0
1.84987,6.04845,3.11356,2.81440,-3.02571,0
1.85543,6.04507,3.10039,2.83665,-3.02366,0
1.86094,6.04151,3.08727,2.85873,-3.02162,0
1.86642,6.03778,3.07421,2.88063,-3.01957,0
1.87185,6.03386,3.06122,2.90237,-3.01752,0
1.87724,6.02977,3.04828,2.92395,-3.01547,0
1.88259,6.02550,3.03540,2.94537,-3.01342,0
1.88790,6.02105,3.02259,2.96664,-3.01137,0
1.89318,6.01644,3.00983,2.98776,-3.00932,0
1.89841,6.01165,2.99713,3.00872,-3.00726,0
1.90361,6.00669,2.98449,3.02954,-3.00520,0
1.90878,6.00155,2.97191,3.05022,-3.00315,0
1.91391,5.99625,2.95939,3.07077,-3.00109,0
1.91900,5.99078,2.94692,3.09117,-2.99903,0
1.92407,5.98515,2.93452,3.11144,-2.99696,0
1.92909,5.97934,2.92217,3.13158,-2.99490,0
1.93409,5.97338,2.90988,3.15159,-2.99284,0
1.93906,5.96724,2.89765,3.17147,-2.99077,0
1.94399,5.96095,2.88548,3.19123,-2.98870,0
1.94889,5.95449,2.87336,3.21087,-2.98664,0
1.95376,5.94787,2.86130,3.23039,-2.98457,0
1.95861,5.94109,2.84930,3.24979,-2.98250,0
1.96342,5.93415,2.83736,3.26908,-2.98043,0
1.96821,5.92705,2.82547,3.28825,-2.97835,0
1.97297,5.91980,2.81364,3.30731,-2.97628,0
1.97770,5.91239,2.80187,3.32627,-2.97421,0
1.98240,5.90483,2.79015,3.34511,-2.97213,0
1.98708,5.89710,2.77849,3.36385,-2.97006,0
1.99173,5.88923,2.76689,3.38249,-2.96798,0
1.99636,5.88121,2.75534,3.40103,-2.96590,0
2.00096,5.87303,2.74385,3.41946,-2.96382,0
2.00553,5.86471,2.73241,3.43779,-2.96174,0
2.01008,5.85624,2.72103,3.45603,-2.95966,0
2.01461,5.84761,2.70970,3.47417,-2.95758,0
2.01911,5.83885,2.69843,3.49222,-2.95550,0
2.02359,5.82993,2.68722,3.51018,-2.95341,0
2.02805,5.82087,2.67605,3.52804,-2.95133,0
2.03249,5.81167,2.66495,3.54581,-2.94924,0
2.03690,5.80232,2.65389,3.56350,-2.94716,0
2.04129,5.79284,2.64290,3.58110,-2.94507,0
2.04566,5.78321,2.63195,3.59861,-2.94298,0
2.05001,5.77344,2.62106,3.61603,-2.94089,0
2.05433,5.76353,2.61023,3.63338,-2.93881,0
2.05864,5.75349,2.59945,3.65064,-2.93672,0
2.06293,5.74331,2.58872,3.66782,-2.93463,0
2.06719,5.73300,2.57804,3.68492,-2.93253,0
2.07144,5.72255,2.56742,3.70194,-2.93044,0
2.07566,5.71196,2.55685,3.71888,-2.92835,0
2.07987,5.70125,2.54634,3.73575,-2.92625,0
2.08406,5.69040,2.53587,3.75254,-2.92416,0
2.08823,5.67942,2.52546,3.76925,-2.92207,0
2.09238,5.66831,2.51510,3.78589,-2.91997,0
2.09651,5.65708,2.50480,3.80246,-2.91787,0
2.10063,5.64572,2.49454,3.81896,-2.91578,0
2.10473,5.63423,2.48434,3.83538,-2.91368,0
2.10880,5.62261,2.47419,3.85174,-2.91158,0
2.11287,5.61088,2.46409,3.86803,-2.90948,0
2.11691,5.59901,2.45404,3.88424,-2.90738,0
2.12094,5.58703,2.44405,3.90040,-2.90528,0
2.12495,5.57493,2.43410,3.91648,-2.90318,0
2.12895,5.56270,2.42421,3.93250,-2.90108,0
2.13293,5.55036,2.41437,3.94845,-2.89898,0
2.13689,5.53789,2.40457,3.96434,-2.89687,0
2.14083,5.52532,2.39483,3.98017,-2.89477,0
2.14477,5.51262,2.38514,3.99593,-2.89267,0
2.14868,5.49981,2.37550,4.00000,-2.89056,0
2.15259,5.48689,2.36590,4.00000,-2.88845,0
2.15650,5.47385,2.35636,4.00000,-2.88633,0
2.16042,5.46070,2.34687,4.00000,-2.88420,0
2.16433,5.44744,2.33743,4.00000,-2.88207,0
2.16824,5.43407,2.32803,4.00000,-2.87992,0
2.17215,5.42060,2.31869,4.00000,-2.87776,0
2.17606,5.40701,2.30939,4.00000,-2.87560,0
2.17997,5.39332,2.30014,4.00000,-2.87343,0
2.18389,5.37952,2.29094,4.00000,-2.87124,0
2.18780,5.36562,2.28180,4.00000,-2.86905,0
2.19171,5.35161,2.27269,4.00000,-2.86685,0
2.19562,5.33750,2.26364,4.00000,-2.86465,0
2.19953,5.32329,2.25463,4.00000,-2.86243,0
2.20344,5.30898,2.24568,4.00000,-2.86020,0
2.20735,5.29457,2.23677,4.00000,-2.85797,0
2.21127,5.28006,2.22790,4.00000,-2.85572,0
2.21518,5.26546,2.21909,4.00000,-2.85347,0
2.21909,5.25075,2.21032,4.00000,-2.85121,0
2.22300,5.23596,2.20160,4.00000,-2.84894,0
2.22691,5.22106,2.19292,4.00000,-2.84666,0
2.23082,5.20608,2.18430,4.00000,-2.84437,0
2.23473,5.19100,2.17572,4.00000,-2.84208,0
2.23865,5.17583,2.16718,4.00000,-2.83977,0
2.24256,5.16057,2.15869,4.00000,-2.83746,0
2.24647,5.14522,2.15025,4.00000,-2.83513,0
2.25038,5.12979,2.14185,4.00000,-2.83280,0
2.25429,5.11426,2.13350,4.00000,-2.83046,0
2.25820,5.09865,2.12520,4.00000,-2.82811,0
2.26212,5.08296,2.11694,4.00000,-2.82575,0
2.26603,5.06718,2.10872,4.00000,-2.82338,0
2.26994,5.05131,2.10055,4.00000,-2.82101,0
2.27385,5.03537,2.09243,4.00000,-2.81862,0
2.27776,5.01934,2.08435,4.00000,-2.81623,0
2.28167,5.00324,2.07631,4.00000,-2.81382,0
2.28558,4.98705,2.06832,4.00000,-2.81141,0
2.28950,4.97079,2.06038,4.00000,-2.80899,0
2.29341,4.95445,2.05247,4.00000,-2.80656,0
2.29732,4.93804,2.04461,4.00000,-2.80412,0
2.30123,4.92155,2.03680,4.00000,-2.80168,0
2.30514,4.90498,2.02903,4.00000,-2.79922,0
2.30905,4.88835,2.02130,4.00000,-2.79676,0
2.31297,4.87164,2.01362,4.00000,-2.79428,0
2.31688,4.85486,2.00597,4.00000,-2.79180,0
2.32079,4.83801,1.99837,4.00000,-2.78931,0
2.32470,4.82109,1.99082,4.00000,-2.78681,0
2.32861,4.80411,1.98331,4.00000,-2.78430,0
2.33252,4.78706,1.97583,4.00000,-2.78178,0
2.33643,4.76994,1.96841,4.00000,-2.77926,0
2.34035,4.75276,1.96102,4.00000,-2.77672,0
2.34426,4.73551,1.95368,4.00000,-2.77418,0
2.34817,4.71821,1.94637,4.00000,-2.77162,0
2.35208,4.70084,1.93911,4.00000,-2.76906,0
2.35599,4.68341,1.93189,4.00000,-2.76649,0
2.35990,4.66592,1.92471,4.00000,-2.76391,0
2.36382,4.64837,1.91758,4.00000,-2.76132,0
2.36773,4.63077,1.91048,4.00000,-2.75873,0
2.37164,4.61311,1.90342,4.00000,-2.75612,0
2.37555,4.59539,1.89641,4.00000,-2.75350,0
2.37946,4.57762,1.88944,4.00000,-2.75088,0
2.38337,4.55980,1.88250,4.00000,-2.74825,0
2.38728,4.54192,1.87561,4.00000,-2.74561,0
2.39120,4.52399,1.86875,4.00000,-2.74296,0
2.39511,4.50602,1.86194,4.00000,-2.74030,0
2.39902,4.48799,1.85517,4.00000,-2.73763,0
2.40293,4.46991,1.84843,4.00000,-2.73495,0
2.40684,4.45179,1.84174,4.00000,-2.73227,0
2.41075,4.43363,1.83508,4.00000,-2.72957,0
2.41467,4.41541,1.82846,4.00000,-2.72687,0
2.41858,4.39716,1.82189,4.00000,-2.72415,0
2.42249,4.37886,1.81535,4.00000,-2.72143,0
2.42640,4.36052,1.80884,4.00000,-2.71870,0
2.43031,4.34213,1.80238,4.00000,-2.71596,0
2.43422,4.32371,1.79596,4.00000,-2.71322,0
2.43814,4.30525,1.78957,4.00000,-2.71046,0
2.44205,4.28675,1.78322,4.00000,-2.70770,0
2.44596,4.26822,1.77691,4.00000,-2.70492,0
2.44987,4.24965,1.77064,4.00000,-2.70214,0
2.45378,4.23104,1.76440,4.00000,-2.69935,0
2.45769,4.21240,1.75820,4.00000,-2.69655,0
2.46161,4.19373,1.75204,4.00000,-2.69374,0
2.46552,4.17503,1.74592,4.00000,-2.69092,0
2.46943,4.15629,1.73983,4.00000,-2.68809,0
2.47334,4.13753,1.73378,4.00000,-2.68525,0
2.47725,4.11873,1.72777,4.00000,-2.68241,0
2.48116,4.09991,1.72179,4.00000,-2.67956,0
2.48507,4.08107,1.71584,4.00000,-2.67908,0
2.48899,4.06220,1.70994,4.00000,-2.67907,0
2.49290,4.04330,1.70407,4.00000,-2.67905,0
2.49681,4.02438,1.69823,4.00000,-2.67902,0
2.50072,4.00544,1.69243,4.00000,-2.67898,0
2.50463,3.98647,1.68667,4.00000,-2.67893,0
2.50854,3.96749,1.68094,4.00000,-2.67887,0
2.51245,3.94849,1.67524,4.00000,-2.67881,0
2.51637,3.92947,1.66958,4.00000,-2.67874,0
2.52028,3.91043,1.66396,4.00000,-2.67865,0
2.52419,3.89137,1.65837,4.00000,-2.67856,0
2.52810,3.87230,1.65281,4.00000,-2.67846,0
2.53201,3.85322,1.64729,4.00000,-2.67835,0
2.53592,3.83412,1.64180,4.00000,-2.67823,0
2.53984,3.81501,1.63635,4.00000,-2.67811,0
2.54375,3.79589,1.63093,4.00000,-2.67797,0
2.54766,3.77676,1.62554,4.00000,-2.67783,0
2.55157,3.75762,1.62019,4.00000,-2.67768,0
2.55548,3.73848,1.61487,4.00000,-2.67751,0
2.55939,3.71932,1.60958,4.00000,-2.67734,0
2.56331,3.70016,1.60433,4.00000,-2.67716,0
2.56722,3.68100,1.59910,4.00000,-2.67697,0
2.57113,3.66183,1.59391,4.00000,-2.67678,0
2.57504,3.64265,1.58876,4.00000,-2.67657,0
2.57895,3.62348,1.58363,4.00000,-2.67635,0
2.58286,3.60431,1.57854,4.00000,-2.67613,0
2.58677,3.58513,1.57348,4.00000,-2.67590,0
2.59069,3.56596,1.56845,4.00000,-2.67566,0
2.59460,3.54679,1.56345,4.00000,-2.67541,0
2.59851,3.52762,1.55848,4.00000,-2.67515,0
2.60242,3.50846,1.55355,4.00000,-2.67488,0
2.60633,3.48930,1.54865,4.00000,-2.67460,0
2.61024,3.47015,1.54377,4.00000,-2.67432,0
2.61416,3.45101,1.53893,4.00000,-2.67402,0
2.61807,3.43187,1.53412,4.00000,-2.67372,0
2.62198,3.41275,1.52934,4.00000,-2.67340,0
2.62589,3.39363,1.52458,4.00000,-2.67308,0
2.62980,3.37453,1.51986,4.00000,-2.67275,0
2.63371,3.35544,1.51517,4.00000,-2.67242,0
2.63762,3.33636,1.51051,4.00000,-2.67207,0
2.64154,3.31730,1.50588,4.00000,-2.67171,0
2.64545,3.29825,1.50128,4.00000,-2.67135,0
2.64936,3.27922,1.49670,4.00000,-2.67097,0
2.65327,3.26021,1.49216,4.00000,-2.67059,0
2.65718,3.24122,1.48764,4.00000,-2.67020,0
2.66109,3.22224,1.48316,4.00000,-2.66980,0
2.66501,3.20329,1.47870,4.00000,-2.66939,0
2.66892,3.18436,1.47427,4.00000,-2.66897,0
2.67283,3.16545,1.46987,4.00000,-2.66854,0
2.67674,3.14657,1.46549,4.00000,-2.66810,0
2.68065,3.12771,1.46115,4.00000,-2.66766,0
2.68456,3.10887,1.45683,4.00000,-2.66721,0
2.68847,3.09007,1.45254,4.00000,-2.66674,0
2.69239,3.07129,1.44828,4.00000,-2.66627,0
2.69630,3.05254,1.44404,4.00000,-2.66579,0
2.70021,3.03382,1.43984,4.00000,-2.66530,0
2.70412,3.01513,1.43565,4.00000,-2.66480,0
2.70803,2.99648,1.43150,4.00000,-2.66430,0
2.71194,2.97785,1.42737,4.00000,-2.66378,0
2.71586,2.95926,1.42327,4.00000,-2.66326,0
2.71977,2.94071,1.41920,4.00000,-2.66272,0
2.72368,2.92219,1.41515,4.00000,-2.66218,0
2.72759,2.90371,1.41113,4.00000,-2.66163,0
2.73150,2.88527,1.40713,4.00000,-2.66107,0
2.73541,2.86687,1.40316,4.00000,-2.66050,0
2.73932,2.84851,1.39921,4.00000,-2.65992,0
2.74324,2.83019,1.39529,4.00000,-2.65934,0
2.74715,2.81191,1.39140,4.00000,-2.65874,0
2.75106,2.79367,1.38753,4.00000,-2.65814,0
2.75497,2.77548,1.38368,4.00000,-2.65753,0
2.75888,2.75734,1.37986,4.00000,-2.65690,0
2.76279,2.73924,1.37607,4.00000,-2.65627,0
2.76670,2.72119,1.37230,4.00000,-2.65563,0
2.77062,2.70319,1.36855,3.99593,-2.65499,0
2.77453,2.68524,1.36483,3.98017,-2.65433,0
2.77846,2.66734,1.36113,3.96434,-2.65366,0
2.78241,2.64949,1.35745,3.94845,-2.65298,0
2.78637,2.63169,1.35380,3.93250,-2.65228,0
2.79035,2.61395,1.35017,3.91648,-2.65158,0
2.79435,2.59626,1.34656,3.90040,-2.65086,0
2.79836,2.57862,1.34298,3.88424,-2.65013,0
2.80239,2.56105,1.33942,3.86803,-2.64939,0
2.80643,2.54353,1.33589,3.85174,-2.64864,0
2.81049,2.52607,1.33237,3.83538,-2.64787,0
2.81457,2.50867,1.32888,3.81896,-2.64709,0
2.81867,2.49133,1.32541,3.80246,-2.64630,0
2.82278,2.47406,1.32196,3.78589,-2.64549,0
2.82692,2.45684,1.31854,3.76925,-2.64467,0
2.83107,2.43969,1.31513,3.75254,-2.64384,0
2.83524,2.42261,1.31175,3.73575,-2.64300,0
2.83943,2.40559,1.30839,3.71888,-2.64214,0
2.84363,2.38864,1.30505,3.70194,-2.64126,0
2.84786,2.37176,1.30173,3.68492,-2.64037,0
2.85211,2.35494,1.29844,3.66782,-2.63947,0
2.85637,2.33820,1.29516,3.65064,-2.63855,0
2.86066,2.32153,1.29190,3.63338,-2.63762,0
2.86496,2.30493,1.28867,3.61603,-2.63667,0
2.86929,2.28840,1.28545,3.59861,-2.63571,0
2.87364,2.27194,1.28226,3.58110,-2.63473,0
2.87801,2.25557,1.27908,3.56350,-2.63373,0
2.88240,2.23927,1.27593,3.54581,-2.63272,0
2.88681,2.22304,1.27279,3.52804,-2.63170,0
2.89125,2.20690,1.26968,3.51018,-2.63065,0
2.89570,2.19083,1.26658,3.49222,-2.62959,0
2.90018,2.17485,1.26350,3.47417,-2.62852,0
2.90469,2.15894,1.26044,3.45603,-2.62742,0
2.90921,2.14312,1.25740,3.43779,-2.62631,0
2.91377,2.12738,1.25438,3.41946,-2.62518,0
2.91834,2.11173,1.25138,3.40103,-2.62403,0
2.92294,2.09616,1.24839,3.38249,-2.62286,0
2.92757,2.08068,1.24543,3.36385,-2.62168,0
2.93222,2.06529,1.24248,3.34511,-2.62047,0
2.93690,2.04999,1.23955,3.32627,-2.61925,0
2.94160,2.03477,1.23664,3.30731,-2.61801,0
2.94633,2.01965,1.23374,3.28825,-2.61674,0
2.95109,2.00462,1.23087,3.26908,-2.61546,0
2.95588,1.98968,1.22800,3.24979,-2.61416,0
2.96069,1.97483,1.22516,3.23039,-2.61283,0
2.96553,1.96008,1.22233,3.21087,-2.61148,0
2.97041,1.94543,1.21952,3.19123,-2.61012,0
2.97531,1.93087,1.21673,3.17147,-2.60872,0
2.98024,1.91641,1.21395,3.15159,-2.60731,0
2.98521,1.90205,1.21119,3.13158,-2.60587,0
2.99020,1.88779,1.20845,3.11144,-2.60441,0
2.99523,1.87363,1.20572,3.09117,-2.60293,0
3.00029,1.85957,1.20301,3.07077,-2.60142,0
3.00539,1.84561,1.20031,3.05022,-2.59989,0
3.01052,1.83176,1.19763,3.02954,-2.59833,0
3.01568,1.81802,1.19496,3.00872,-2.59674,0
3.02088,1.80438,1.19231,2.98776,-2.59513,0
3.02612,1.79085,1.18967,2.96664,-2.59349,0
3.03139,1.77742,1.18705,2.94537,-2.59182,0
3.03671,1.76411,1.18444,2.92395,-2.59013,0
3.04206,1.75091,1.18185,2.90237,-2.58841,0
3.04745,1.73781,1.17927,2.88063,-2.58665,0
3.05288,1.72483,1.17671,2.85873,-2.58487,0
3.05835,1.71197,1.17416,2.83665,-2.58305,0
3.06387,1.69921,1.17162,2.81440,-2.58121,0
3.06943,1.68658,1.16910,2.79198,-2.57933,0
3.07503,1.67406,1.16659,2.76937,-2.57742,0
3.08068,1.66165,1.16409,2.74658,-2.57547,0
3.08638,1.64937,1.16161,2.72359,-2.57349,0
