time,x_pos,y_pos,velocity,rotation,action
0.00010,7.60354,7.62524,0.00000,-3.14159,0
0.00020,7.60354,7.62524,0.35481,-3.14159,0
0.04439,7.59026,7.62509,0.50177,-3.14082,0
0.07564,7.57692,7.62466,0.61454,-3.13933,0
0.10115,7.56353,7.62393,0.70961,-3.13755,0
0.12325,7.55007,7.62292,0.79337,-3.13559,0
0.14301,7.53656,7.62162,0.86910,-3.13351,0
0.16105,7.52300,7.62005,0.93873,-3.13134,0
0.17775,7.50938,7.61819,1.00355,-3.12910,0
0.19338,7.49571,7.61606,1.06442,-3.12681,0
0.20811,7.48199,7.61366,1.12200,-3.12447,0
0.22208,7.46821,7.61098,1.17676,-3.12209,0
0.23541,7.45439,7.60804,1.22909,-3.11968,0
0.24816,7.44052,7.60484,1.27927,-3.11724,0
0.26042,7.42661,7.60137,1.32757,-3.11477,0
0.27223,7.41264,7.59764,1.37416,-3.11229,0
0.28364,7.39863,7.59365,1.41923,-3.10978,0
0.29469,7.38458,7.58941,1.46291,-3.10725,0
0.30541,7.37048,7.58492,1.50532,-3.10470,0
0.31582,7.35635,7.58018,1.54657,-3.10214,0
0.32596,7.34217,7.57519,1.58675,-3.09957,0
0.33584,7.32795,7.56996,1.62593,-3.09698,0
0.34549,7.31369,7.56449,1.66419,-3.09438,0
0.35491,7.29940,7.55877,1.70159,-3.09177,0
0.36412,7.28506,7.55282,1.73819,-3.08915,0
0.37314,7.27069,7.54664,1.77403,-3.08652,0
0.38198,7.25629,7.54023,1.80917,-3.08388,0
0.39065,7.24186,7.53359,1.84363,-3.08123,0
0.39915,7.22739,7.52672,1.87746,-3.07857,0
0.40750,7.21289,7.51963,1.91069,-3.07591,0
0.41571,7.19836,7.51232,1.94336,-3.07324,0
0.42378,7.18380,7.50479,1.97548,-3.07056,0
0.43171,7.16921,7.49705,2.00709,-3.06787,0
0.43953,7.15459,7.48909,2.03821,-3.06518,0
0.44722,7.13995,7.48092,2.06886,-3.06248,0
0.45480,7.12529,7.47255,2.09907,-3.05977,0
0.46227,7.11060,7.46397,2.12884,-3.05706,0
0.46963,7.09588,7.45519,2.15821,-3.05435,0
0.47690,7.08115,7.44621,2.18718,-3.05163,0
0.48407,7.06639,7.43703,2.21577,-3.04890,0
0.49114,7.05161,7.42766,2.24400,-3.04617,0
0.49813,7.03682,7.41809,2.27187,-3.04343,0
0.50503,7.02200,7.40834,2.29941,-3.04070,0
0.51185,7.00717,7.39840,2.32662,-3.03795,0
0.51859,6.99233,7.38827,2.35352,-3.03520,0
0.52525,6.97747,7.37797,2.38012,-3.03245,0
0.53184,6.96259,7.36749,2.40642,-3.02970,0
0.53836,6.94771,7.35683,2.43243,-3.02694,0
0.54480,6.93281,7.34599,2.45817,-3.02418,0
0.55118,6.91790,7.33499,2.48365,-3.02141,0
0.55749,6.90298,7.32382,2.50886,-3.01864,0
0.56374,6.88806,7.31248,2.53383,-3.01587,0
0.56993,6.87313,7.30098,2.55855,-3.01309,0
0.57606,6.85819,7.28932,2.58303,-3.01031,0
0.58213,6.84324,7.27750,2.60729,-3.00753,0
0.58814,6.82829,7.26553,2.63132,-3.00475,0
0.59410,6.81334,7.25340,2.65513,-3.00196,0
0.60001,6.79839,7.24113,2.67873,-2.99917,0
0.60586,6.78343,7.22871,2.70213,-2.99638,0
0.61166,6.76848,7.21614,2.72532,-2.99358,0
0.61742,6.75353,7.20343,2.74832,-2.99078,0
0.62312,6.73858,7.19058,2.77113,-2.98798,0
0.62878,6.72363,7.17760,2.79375,-2.98518,0
0.63439,6.70869,7.16448,2.81619,-2.98237,0
0.63996,6.69375,7.15123,2.83846,-2.97957,0
0.64548,6.67882,7.13785,2.86055,-2.97676,0
0.65096,6.66389,7.12434,2.88247,-2.97395,0
0.65640,6.64898,7.11071,2.90422,-2.97113,0
0.66180,6.63407,7.09696,2.92581,-2.96832,0
0.66716,6.61918,7.08309,2.94725,-2.96550,0
0.67248,6.60430,7.06911,2.96853,-2.96268,0
0.67776,6.58943,7.05501,2.98966,-2.95986,0
0.68301,6.57457,7.04080,3.01064,-2.95703,0
0.68822,6.55973,7.02649,3.03147,-2.95421,0
0.69339,6.54490,7.01207,3.05217,-2.95138,0
0.69852,6.53010,6.99754,3.07272,-2.94855,0
0.70363,6.51530,6.98292,3.09314,-2.94572,0
0.70870,6.50053,6.96820,3.11342,-2.94289,0
0.71373,6.48578,6.95338,3.13357,-2.94005,0
0.71874,6.47105,6.93847,3.15359,-2.93722,0
0.72371,6.45635,6.92347,3.17349,-2.93438,0
0.72865,6.44166,6.90839,3.19326,-2.93154,0
0.73356,6.42700,6.89322,3.21291,-2.92870,0
0.73844,6.41237,6.87797,3.23245,-2.92585,0
0.74329,6.39776,6.86264,3.25186,-2.92301,0
0.74811,6.38318,6.84723,3.27116,-2.92017,0
0.75290,6.36863,6.83175,3.29034,-2.91732,0
0.75767,6.35410,6.81620,3.30942,-2.91447,0
0.76241,6.33961,6.80058,3.32838,-2.91162,0
0.76712,6.32515,6.78489,3.34724,-2.90877,0
0.77180,6.31073,6.76914,3.36599,-2.90592,0
0.77646,6.29633,6.75333,3.38464,-2.90306,0
0.78109,6.28197,6.73746,3.40319,-2.90021,0
0.78570,6.26765,6.72154,3.42163,-2.89735,0
0.79028,6.25337,6.70556,3.43998,-2.89449,0
0.79484,6.23912,6.68953,3.45823,-2.89164,0
0.79937,6.22491,6.67346,3.47638,-2.88878,0
0.80388,6.21074,6.65734,3.49444,-2.88591,0
0.80837,6.19662,6.64118,3.51241,-2.88305,0
0.81284,6.18254,6.62497,3.53029,-2.88019,0
0.81728,6.16849,6.60873,3.54807,-2.87732,0
0.82170,6.15450,6.59246,3.56577,-2.87446,0
0.82609,6.14055,6.57615,3.58338,-2.87159,0
0.83047,6.12664,6.55982,3.60090,-2.86872,0
0.83482,6.11279,6.54346,3.61834,-2.86585,0
0.83916,6.09898,6.52707,3.63569,-2.86298,0
0.84347,6.08522,6.51066,3.65296,-2.86011,0
0.84776,6.07151,6.49424,3.67015,-2.85724,0
0.85203,6.05786,6.47779,3.68726,-2.85436,0
0.85629,6.04425,6.46134,3.70429,-2.85149,0
0.86052,6.03070,6.44487,3.72125,-2.84861,0
0.86473,6.01721,6.42839,3.73812,-2.84574,0
0.86893,6.00377,6.41191,3.75492,-2.84286,0
0.87310,5.99039,6.39543,3.74810,-2.83998,0
0.87729,5.97707,6.37894,3.73126,-2.83709,0
0.88149,5.96380,6.36246,3.71436,-2.83416,0
0.88571,5.95060,6.34598,3.69737,-2.83121,0
0.88995,5.93746,6.32951,3.68031,-2.82823,0
0.89421,5.92438,6.31305,3.66316,-2.82522,0
0.89849,5.91136,6.29660,3.64594,-2.82219,0
0.90279,5.89841,6.28016,3.62864,-2.81912,0
0.90711,5.88552,6.26375,3.61125,-2.81603,0
0.91145,5.87270,6.24735,3.59378,-2.81290,0
0.91582,5.85995,6.23098,3.57622,-2.80975,0
0.92020,5.84726,6.21463,3.55857,-2.80656,0
0.92461,5.83465,6.19832,3.54084,-2.80334,0
0.92903,5.82210,6.18203,3.52302,-2.80010,0
0.93349,5.80963,6.16577,3.50511,-2.79682,0
0.93796,5.79723,6.14956,3.48710,-2.79350,0
0.94245,5.78491,6.13338,3.46901,-2.79016,0
0.94697,5.77266,6.11724,3.45081,-2.78678,0
0.95152,5.76048,6.10115,3.43253,-2.78337,0
0.95609,5.74839,6.08510,3.41414,-2.77992,0
0.96068,5.73637,6.06910,3.39565,-2.77643,0
0.96530,5.72443,6.05316,3.37707,-2.77292,0
0.96994,5.71257,6.03727,3.35837,-2.76936,0
0.97461,5.70079,6.02143,3.33958,-2.76577,0
0.97930,5.68909,6.00566,3.32068,-2.76214,0
0.98402,5.67748,5.98994,3.30167,-2.75847,0
0.98877,5.66595,5.97430,3.28255,-2.75476,0
0.99355,5.65451,5.95872,3.26332,-2.75102,0
0.99835,5.64316,5.94321,3.24397,-2.74723,0
1.00319,5.63189,5.92777,3.22451,-2.74340,0
1.00805,5.62071,5.91241,3.20493,-2.73953,0
1.01294,5.60962,5.89713,3.18523,-2.73562,0
1.01787,5.59862,5.88192,3.16541,-2.73166,0
1.02282,5.58771,5.86680,3.14546,-2.72766,0
1.02780,5.57690,5.85177,3.12538,-2.72362,0
1.03282,5.56618,5.83683,3.10518,-2.71953,0
1.03787,5.55555,5.82197,3.08484,-2.71539,0
1.04295,5.54502,5.80721,3.06437,-2.71120,0
1.04807,5.53459,5.79255,3.04376,-2.70697,0
1.05322,5.52425,5.77798,3.02301,-2.70269,0
1.05841,5.51402,5.76352,3.00212,-2.69835,0
1.06363,5.50389,5.74916,2.98108,-2.69397,0
1.06889,5.49385,5.73491,2.95989,-2.68953,0
1.07419,5.48392,5.72077,2.93854,-2.68504,0
1.07952,5.47409,5.70674,2.91704,-2.68049,0
1.08490,5.46437,5.69282,2.89539,-2.67589,0
1.09031,5.45475,5.67902,2.87356,-2.67122,0
1.09577,5.44524,5.66535,2.85158,-2.66650,0
1.10127,5.43584,5.65179,2.82942,-2.66172,0
1.10681,5.42654,5.63836,2.80708,-2.65688,0
1.11239,5.41736,5.62506,2.78457,-2.65198,0
1.11803,5.40828,5.61188,2.76187,-2.64701,0
1.12370,5.39932,5.59884,2.73899,-2.64197,0
1.12943,5.39047,5.58594,2.71591,-2.63687,0
1.13520,5.38174,5.57317,2.69263,-2.63169,0
1.14102,5.37312,5.56055,2.66915,-2.62645,0
1.14690,5.36461,5.54807,2.64547,-2.62113,0
1.15282,5.35622,5.53573,2.62156,-2.61574,0
1.15881,5.34795,5.52355,2.59744,-2.61032,0
1.16484,5.33980,5.51151,2.57310,-2.60488,0
1.17094,5.33177,5.49963,2.54852,-2.59942,0
1.17709,5.32387,5.48791,2.52370,-2.59393,0
1.18330,5.31608,5.47634,2.49863,-2.58842,0
1.18958,5.30842,5.46494,2.47331,-2.58289,0
1.19591,5.30088,5.45370,2.44773,-2.57733,0
1.20232,5.29347,5.44263,2.42188,-2.57175,0
1.20879,5.28618,5.43173,2.39575,-2.56614,0
1.21534,5.27902,5.42100,2.36933,-2.56050,0
1.22196,5.27199,5.41044,2.34261,-2.55483,0
1.22865,5.26509,5.40007,2.31559,-2.54913,0
1.23542,5.25833,5.38987,2.28824,-2.54341,0
1.24227,5.25169,5.37986,2.26057,-2.53765,0
1.24921,5.24518,5.37003,2.23255,-2.53186,0
1.25623,5.23882,5.36039,2.20418,-2.52603,0
1.26335,5.23258,5.35094,2.17543,-2.52017,0
1.27055,5.22648,5.34168,2.14630,-2.51428,0
1.27786,5.22052,5.33262,2.11677,-2.50834,0
1.28527,5.21470,5.32376,2.08683,-2.50237,0
1.29278,5.20901,5.31510,2.05644,-2.49635,0
1.30040,5.20347,5.30664,2.02560,-2.49029,0
1.30814,5.19806,5.29839,1.99429,-2.48419,0
1.31601,5.19280,5.29035,1.96247,-2.47804,0
1.32400,5.18769,5.28252,1.93013,-2.47184,0
1.33212,5.18272,5.27490,1.89724,-2.46558,0
1.34038,5.17789,5.26750,1.86377,-2.45928,0
1.34880,5.17321,5.26032,1.82968,-2.45291,0
1.35737,5.16868,5.25337,1.79495,-2.44648,0
1.36610,5.16429,5.24663,1.75953,-2.43999,0
1.37501,5.16006,5.24013,1.72339,-2.43343,0
1.38411,5.15598,5.23385,1.68647,-2.42680,0
1.39341,5.15204,5.22781,1.64873,-2.42009,0
1.40292,5.14827,5.22200,1.61010,-2.41330,0
1.41266,5.14464,5.21643,1.57052,-2.40642,0
1.42264,5.14117,5.21110,1.52991,-2.39944,0
1.43289,5.13786,5.20601,1.48820,-2.39236,0
1.44342,5.13470,5.20117,1.44529,-2.38517,0
1.45427,5.13171,5.19658,1.40106,-2.37785,0
1.46546,5.12887,5.19224,1.35539,-2.37041,0
1.47703,5.12619,5.18815,1.30812,-2.36281,0
1.48902,5.12367,5.18432,1.25909,-2.35506,0
1.50147,5.12132,5.18075,1.20806,-2.34712,0
1.51445,5.11913,5.17743,1.15478,-2.33898,0
1.52803,5.11710,5.17439,1.09893,-2.33060,0
1.54229,5.11524,5.17160,1.04007,-2.32196,0
1.55737,5.11355,5.16909,0.97768,-2.31300,0
1.57341,5.11202,5.16685,0.91103,-2.30367,0
1.59062,5.11066,5.16489,0.83910,-2.29388,0
1.60930,5.10948,5.16320,0.76039,-2.28352,0
1.62992,5.10846,5.16179,0.67254,-2.27240,0
1.65324,5.10761,5.16066,0.57133,-2.26024,0
1.68068,5.10694,5.15982,0.44781,-2.24648,0
1.71569,5.10644,5.15927,0.27322,-2.22978,0
1.77308,5.10612,5.15900,0.08166,-2.20452,0
1.96508,5.10598,5.15903,0.06056,-2.13894,0
2.22400,5.10601,5.15935,0.20498,-2.09672,0
2.30050,5.10621,5.15998,0.35481,-2.09440,0
2.38888,5.10792,5.16366,0.00000,-2.09440,4112
2.38898,5.10792,5.16366,0.35481,-2.09440,0
2.43322,5.09528,5.14608,0.50177,-2.09440,0
2.46451,5.08140,5.13151,0.61454,-2.09440,0
2.49005,5.06652,5.11972,0.70961,-2.09440,0
2.51218,5.05091,5.11049,0.79337,-2.09440,0
2.53196,5.03481,5.10361,0.86910,-2.09440,0
2.55003,5.01848,5.09884,0.93873,-2.09440,0
2.56675,5.00215,5.09598,1.00355,-2.09440,0
2.58239,4.98609,5.09480,1.06442,-2.09440,0
2.59714,4.97055,5.09507,1.06550,-2.09440,0
2.61187,4.95577,5.09660,1.00469,-2.09440,0
2.62750,4.94201,5.09914,0.93995,-2.09440,0
2.64420,4.92952,5.10248,0.87042,-2.09440,0
2.66224,4.91855,5.10640,0.79482,-2.09440,0
2.68199,4.90935,5.11069,0.71123,-2.09440,0
2.70406,4.90217,5.11511,0.61641,-2.09440,0
2.72953,4.89726,5.11945,0.50406,-2.09440,0
2.76067,4.89487,5.12350,0.35803,-2.09440,0
2.80452,4.89526,5.12702,0.32101,-2.09440,0
2.85342,4.89867,5.12981,0.47847,-2.09440,0
2.88623,4.90535,5.13163,0.59567,-2.09440,0
2.91258,4.91557,5.13228,0.69333,-2.09440,0
2.93522,4.92956,5.13152,0.77885,-2.09440,0
2.95538,4.94758,5.12914,0.85586,-2.09440,0
2.97372,4.96987,5.12493,0.92649,-2.09440,0
3.00761,5.06494,5.09903,0.99210,-2.09440,83968
3.02338,5.06494,5.09903,1.05364,-2.09434,0
3.03822,5.08427,5.09290,1.11177,-2.09418,0
3.05230,5.10346,5.08673,1.16702,-2.09393,0
3.06570,5.12250,5.08054,1.21976,-2.09360,0
3.07853,5.14142,5.07432,1.27032,-2.09322,0
3.09084,5.16019,5.06807,1.31894,-2.09277,0
3.10270,5.17883,5.06180,1.36583,-2.09227,0
3.11416,5.19734,5.05549,1.41116,-2.09173,0
3.12524,5.21571,5.04916,1.45508,-2.09115,0
3.13599,5.23394,5.04280,1.49771,-2.09053,0
3.14644,5.25204,5.03641,1.53917,-2.08987,0
3.15660,5.27000,5.02998,1.57953,-2.08919,0
3.16650,5.28783,5.02354,1.61889,-2.08847,0
3.17617,5.30553,5.01706,1.65732,-2.08773,0
3.18561,5.32310,5.01055,1.69487,-2.08696,0
3.19484,5.34053,5.00401,1.73161,-2.08617,0
3.20387,5.35783,4.99745,1.76759,-2.08536,0
3.21272,5.37499,4.99085,1.80284,-2.08453,0
3.22140,5.39203,4.98422,1.83743,-2.08367,0
3.22991,5.40893,4.97757,1.87137,-2.08280,0
3.23827,5.42571,4.97088,1.90471,-2.08191,0
3.24649,5.44235,4.96417,1.93747,-2.08101,0
3.25456,5.45886,4.95742,1.96969,-2.08009,0
3.26250,5.47525,4.95065,2.00139,-2.07915,0
3.27032,5.49150,4.94384,2.03260,-2.07821,0
3.27801,5.50762,4.93701,2.06334,-2.07724,0
3.28560,5.52362,4.93014,2.09362,-2.07627,0
3.29307,5.53949,4.92324,2.12347,-2.07528,0
3.30044,5.55523,4.91632,2.15291,-2.07428,0
3.30770,5.57084,4.90936,2.18195,-2.07327,0
3.31487,5.58633,4.90237,2.21061,-2.07225,0
3.32195,5.60169,4.89535,2.23890,-2.07122,0
3.32893,5.61692,4.88830,2.26684,-2.07017,0
3.33584,5.63203,4.88122,2.29444,-2.06912,0
3.34265,5.64701,4.87411,2.32171,-2.06806,0
3.34939,5.66186,4.86697,2.34867,-2.06699,0
3.35605,5.67660,4.85980,2.37532,-2.06591,0
3.36264,5.69120,4.85259,2.40167,-2.06483,0
3.36915,5.70569,4.84535,2.42774,-2.06373,0
3.37560,5.72005,4.83809,2.45353,-2.06263,0
3.38197,5.73428,4.83079,2.47905,-2.06152,0
3.38828,5.74839,4.82345,2.50431,-2.06040,0
3.39453,5.76238,4.81609,2.52932,-2.05928,0
3.40071,5.77625,4.80870,2.55408,-2.05814,0
3.40684,5.79000,4.80127,2.57861,-2.05701,0
3.41290,5.80362,4.79381,2.60291,-2.05586,0
3.41892,5.81713,4.78632,2.62698,-2.05471,0
3.42487,5.83051,4.77880,2.65083,-2.05355,0
3.43077,5.84378,4.77124,2.67447,-2.05239,0
3.43662,5.85692,4.76366,2.69790,-2.05122,0
3.44242,5.86994,4.75603,2.72113,-2.05004,0
3.44817,5.88285,4.74838,2.74417,-2.04886,0
3.45387,5.89564,4.74070,2.76701,-2.04768,0
3.45952,5.90830,4.73298,2.78966,-2.04649,0
3.46513,5.92085,4.72523,2.81214,-2.04529,0
3.47069,5.93329,4.71744,2.83443,-2.04409,0
3.47621,5.94560,4.70963,2.85655,-2.04288,0
3.48169,5.95780,4.70178,2.87850,-2.04167,0
3.48712,5.96988,4.69389,2.90029,-2.04046,0
3.49252,5.98185,4.68598,2.92191,-2.03924,0
3.49787,5.99370,4.67803,2.94337,-2.03801,0
3.50319,6.00543,4.67004,2.96468,-2.03678,0
3.50846,6.01705,4.66203,2.98584,-2.03555,0
3.51370,6.02856,4.65398,3.00684,-2.03431,0
3.51890,6.03995,4.64589,3.02770,-2.03307,0
3.52407,6.05122,4.63777,3.04842,-2.03182,0
3.52920,6.06239,4.62962,3.06900,-2.03057,0
3.53430,6.07344,4.62144,3.08944,-2.02932,0
3.53936,6.08438,4.61322,3.10975,-2.02806,0
3.54439,6.09520,4.60496,3.12992,-2.02680,0
3.54939,6.10592,4.59668,3.14997,-2.02554,0
3.55436,6.11652,4.58835,3.16989,-2.02427,0
3.55929,6.12701,4.58000,3.18969,-2.02300,0
3.56420,6.13739,4.57160,3.20936,-2.02172,0
3.56907,6.14766,4.56318,3.22891,-2.02044,0
3.57392,6.15782,4.55472,3.24835,-2.01916,0
3.57873,6.16787,4.54622,3.26767,-2.01788,0
3.58352,6.17781,4.53769,3.28687,-2.01659,0
3.58828,6.18765,4.52913,3.30597,-2.01530,0
3.59301,6.19737,4.52053,3.32495,-2.01400,0
3.59772,6.20699,4.51189,3.34383,-2.01271,0
3.60239,6.21650,4.50322,3.36260,-2.01141,0
3.60705,6.22590,4.49451,3.38127,-2.01010,0
3.61167,6.23519,4.48577,3.39983,-2.00880,0
3.61627,6.24438,4.47699,3.41830,-2.00749,0
3.62085,6.25346,4.46818,3.43666,-2.00618,0
3.62540,6.26243,4.45933,3.45493,-2.00486,0
3.62993,6.27130,4.45045,3.47310,-2.00354,0
3.63443,6.28007,4.44153,3.49117,-2.00222,0
3.63892,6.28873,4.43257,3.50916,-2.00090,0
3.64337,6.29728,4.42358,3.52705,-1.99958,0
3.64781,6.30573,4.41455,3.54485,-1.99825,0
3.65222,6.31408,4.40549,3.56256,-1.99692,0
3.65661,6.32233,4.39639,3.58019,-1.99559,0
3.66098,6.33047,4.38725,3.59773,-1.99425,0
3.66533,6.33851,4.37808,3.61518,-1.99291,0
3.66966,6.34645,4.36887,3.63255,-1.99157,0
3.67396,6.35428,4.35962,3.64983,-1.99023,0
3.67825,6.36202,4.35034,3.66704,-1.98889,0
3.68252,6.36965,4.34102,3.68416,-1.98754,0
3.68676,6.37718,4.33166,3.70121,-1.98619,0
3.69099,6.38462,4.32227,3.71818,-1.98484,0
3.69520,6.39195,4.31284,3.73507,-1.98349,0
3.69939,6.39918,4.30337,3.75188,-1.98213,0
3.70355,6.40632,4.29386,3.76862,-1.98078,0
3.70771,6.41335,4.28432,3.78529,-1.97942,0
3.71184,6.42029,4.27474,3.80188,-1.97806,0
3.71595,6.42713,4.26512,3.81840,-1.97669,0
3.72005,6.43388,4.25546,3.83485,-1.97533,0
3.72413,6.44052,4.24577,3.85123,-1.97396,0
3.72819,6.44707,4.23604,3.86754,-1.97259,0
3.73224,6.45352,4.22627,3.88378,-1.97122,0
3.73626,6.45988,4.21646,3.89995,-1.96985,0
3.74028,6.46614,4.20662,3.91606,-1.96847,0
3.74427,6.47230,4.19673,3.93210,-1.96709,0
3.74825,6.47837,4.18681,3.94807,-1.96571,0
3.75221,6.48435,4.17685,3.96398,-1.96433,0
3.75616,6.49023,4.16685,3.97983,-1.96295,0
3.76009,6.49602,4.15681,3.99561,-1.96157,0
3.76400,6.50172,4.14674,4.01134,-1.96018,0
3.76790,6.50732,4.13662,4.02700,-1.95879,0
3.77179,6.51283,4.12647,4.04260,-1.95740,0
3.77566,6.51824,4.11628,4.05814,-1.95601,0
3.77951,6.52357,4.10605,4.07362,-1.95462,0
3.78335,6.52880,4.09578,4.08904,-1.95323,0
3.78718,6.53395,4.08547,4.10441,-1.95183,0
3.79099,6.53900,4.07512,4.11971,-1.95043,0
3.79479,6.54396,4.06473,4.13496,-1.94903,0
3.79857,6.54883,4.05430,4.15016,-1.94763,0
3.80234,6.55362,4.04383,4.16530,-1.94623,0
3.80610,6.55831,4.03333,4.18038,-1.94483,0
3.80984,6.56291,4.02278,4.19541,-1.94342,0
3.81357,6.56743,4.01219,4.21039,-1.94202,0
3.81728,6.57186,4.00157,4.22531,-1.94061,0
3.82098,6.57620,3.99090,4.24018,-1.93920,0
3.82467,6.58045,3.98020,4.25500,-1.93779,0
3.82835,6.58462,3.96945,4.26977,-1.93638,0
3.83201,6.58870,3.95866,4.28448,-1.93496,0
3.83566,6.59269,3.94784,4.29915,-1.93355,0
3.83930,6.59660,3.93697,4.31377,-1.93213,0
3.84293,6.60042,3.92606,4.32833,-1.93071,0
3.84654,6.60416,3.91511,4.34285,-1.92929,0
3.85015,6.60781,3.90412,4.35732,-1.92787,0
3.85374,6.61138,3.89309,4.37174,-1.92645,0
3.85732,6.61487,3.88202,4.38612,-1.92502,0
3.86088,6.61827,3.87091,4.40044,-1.92360,0
3.86444,6.62159,3.85976,4.41472,-1.92217,0
3.86798,6.62482,3.84857,4.42896,-1.92075,0
3.87151,6.62797,3.83733,4.44315,-1.91932,0
3.87503,6.63104,3.82605,4.45729,-1.91789,0
3.87854,6.63404,3.81474,4.47139,-1.91646,0
3.88204,6.63694,3.80338,4.48545,-1.91502,0
3.88553,6.63977,3.79198,4.49946,-1.91359,0
3.88901,6.64252,3.78053,4.51343,-1.91216,0
3.89247,6.64518,3.76905,4.52735,-1.91072,0
3.89593,6.64777,3.75752,4.54123,-1.90928,0
3.89937,6.65028,3.74596,4.55507,-1.90784,0
3.90281,6.65271,3.73435,4.56887,-1.90640,0
3.90623,6.65506,3.72269,4.58262,-1.90496,0
3.90964,6.65733,3.71100,4.59634,-1.90352,0
3.91305,6.65953,3.69926,4.61001,-1.90208,0
3.91644,6.66164,3.68748,4.62365,-1.90063,0
3.91982,6.66368,3.67566,4.63724,-1.89919,0
3.92320,6.66565,3.66380,4.65079,-1.89774,0
3.92656,6.66753,3.65189,4.66431,-1.89629,0
3.92992,6.66935,3.63994,4.67778,-1.89485,0
3.93326,6.67108,3.62795,4.69122,-1.89340,0
3.93659,6.67274,3.61591,4.70462,-1.89194,0
3.93992,6.67433,3.60383,4.71798,-1.89049,0
3.94324,6.67584,3.59171,4.73130,-1.88904,0
3.94654,6.67728,3.57955,4.74459,-1.88759,0
3.94984,6.67864,3.56734,4.75783,-1.88613,0
3.95313,6.67993,3.55509,4.77105,-1.88468,0
3.95641,6.68115,3.54280,4.78422,-1.88322,0
3.95968,6.68230,3.53046,4.78661,-1.88176,0
3.96294,6.68337,3.51808,4.77344,-1.88030,0
3.96622,6.68437,3.50565,4.76024,-1.87883,0
3.96951,6.68530,3.49318,4.74699,-1.87735,0
3.97280,6.68616,3.48067,4.73372,-1.87586,0
3.97611,6.68695,3.46811,4.72040,-1.87436,0
3.97942,6.68767,3.45551,4.70705,-1.87285,0
3.98275,6.68831,3.44286,4.69366,-1.87133,0
3.98608,6.68889,3.43017,4.68023,-1.86980,0
3.98942,6.68940,3.41744,4.66676,-1.86827,0
3.99277,6.68985,3.40466,4.65325,-1.86672,0
3.99614,6.69022,3.39184,4.63970,-1.86516,0
3.99951,6.69052,3.37897,4.62612,-1.86360,0
4.00289,6.69076,3.36606,4.61249,-1.86202,0
4.00628,6.69093,3.35310,4.59882,-1.86043,0
4.00968,6.69103,3.34010,4.58512,-1.85884,0
4.01309,6.69107,3.32705,4.57137,-1.85723,0
4.01652,6.69104,3.31396,4.55758,-1.85561,0
4.01995,6.69095,3.30082,4.54375,-1.85399,0
4.02339,6.69079,3.28764,4.52987,-1.85235,0
4.02684,6.69056,3.27441,4.51596,-1.85070,0
4.03031,6.69027,3.26114,4.50200,-1.84904,0
4.03378,6.68992,3.24782,4.48799,-1.84737,0
4.03727,6.68950,3.23445,4.47395,-1.84569,0
4.04077,6.68902,3.22104,4.45985,-1.84400,0
4.04427,6.68848,3.20759,4.44572,-1.84229,0
4.04779,6.68787,3.19409,4.43154,-1.84058,0
4.05132,6.68720,3.18054,4.41731,-1.83885,0
4.05486,6.68647,3.16694,4.40304,-1.83712,0
4.05842,6.68568,3.15330,4.38872,-1.83537,0
4.06198,6.68483,3.13962,4.37435,-1.83361,0
4.06556,6.68391,3.12589,4.35994,-1.83184,0
4.06915,6.68294,3.11211,4.34548,-1.83006,0
