time,x_pos,y_pos,velocity,rotation,action
0.00010,7.60137,7.69675,0.00000,-3.14159,0
0.00020,7.60137,7.69675,0.21723,-3.14159,0
0.07231,7.58868,7.69668,0.30721,-3.14036,0
0.12330,7.57601,7.69645,0.37625,-3.13802,0
0.16493,7.56336,7.69608,0.43446,-3.13519,0
0.20098,7.55073,7.69555,0.48574,-3.13208,0
0.23323,7.53812,7.69489,0.53210,-3.12879,0
0.26267,7.52553,7.69407,0.57474,-3.12535,0
0.28992,7.51295,7.69311,0.61442,-3.12180,0
0.31542,7.50040,7.69200,0.65169,-3.11817,0
0.33945,7.48787,7.69074,0.68694,-3.11446,0
0.36226,7.47535,7.68935,0.72047,-3.11069,0
0.38400,7.46286,7.68781,0.75251,-3.10687,0
0.40481,7.45038,7.68613,0.78323,-3.10300,0
0.42481,7.43792,7.68431,0.81280,-3.09909,0
0.44408,7.42549,7.68234,0.84133,-3.09515,0
0.46270,7.41307,7.68024,0.86892,-3.09117,0
0.48073,7.40067,7.67800,0.89566,-3.08716,0
0.49822,7.38829,7.67561,0.92163,-3.08313,0
0.51521,7.37593,7.67310,0.94688,-3.07907,0
0.53176,7.36359,7.67044,0.97148,-3.07499,0
0.54788,7.35127,7.66765,0.99547,-3.07089,0
0.56362,7.33897,7.66472,1.01890,-3.06677,0
0.57899,7.32668,7.66165,1.04180,-3.06263,0
0.59402,7.31442,7.65846,1.06420,-3.05848,0
0.60874,7.30217,7.65513,1.08615,-3.05431,0
0.62317,7.28995,7.65167,1.10766,-3.05012,0
0.63731,7.27774,7.64807,1.12876,-3.04592,0
0.65118,7.26555,7.64435,1.14947,-3.04171,0
0.66481,7.25338,7.64049,1.16982,-3.03748,0
0.67820,7.24123,7.63651,1.18982,-3.03325,0
0.69137,7.22910,7.63240,1.20948,-3.02900,0
0.70432,7.21699,7.62816,1.22884,-3.02474,0
0.71706,7.20490,7.62379,1.24789,-3.02047,0
0.72962,7.19283,7.61929,1.26666,-3.01619,0
0.74198,7.18077,7.61467,1.28515,-3.01191,0
0.75417,7.16874,7.60993,1.30338,-3.00761,0
0.76619,7.15672,7.60506,1.32136,-3.00331,0
0.77804,7.14472,7.60006,1.33909,-2.99899,0
0.78974,7.13275,7.59495,1.35660,-2.99467,0
0.80129,7.12079,7.58971,1.37388,-2.99034,0
0.81269,7.10885,7.58435,1.39095,-2.98601,0
0.82395,7.09693,7.57888,1.40781,-2.98167,0
0.83508,7.08502,7.57328,1.42447,-2.97732,0
0.84607,7.07314,7.56756,1.44094,-2.97296,0
0.85695,7.06127,7.56172,1.45722,-2.96860,0
0.86769,7.04943,7.55577,1.47332,-2.96423,0
0.87833,7.03760,7.54970,1.48925,-2.95986,0
0.88884,7.02579,7.54352,1.50501,-2.95548,0
0.89925,7.01400,7.53721,1.52061,-2.95110,0
0.90955,7.00223,7.53080,1.53605,-2.94671,0
0.91975,6.99048,7.52427,1.55133,-2.94231,0
0.92985,6.97875,7.51763,1.56647,-2.93791,0
0.93985,6.96704,7.51088,1.58146,-2.93351,0
0.94975,6.95534,7.50401,1.59631,-2.92910,0
0.95957,6.94366,7.49704,1.61102,-2.92468,0
0.96929,6.93201,7.48995,1.62560,-2.92026,0
0.97892,6.92037,7.48276,1.64005,-2.91584,0
0.98848,6.90875,7.47546,1.65437,-2.91142,0
0.99794,6.89714,7.46805,1.66857,-2.90698,0
1.00733,6.88556,7.46053,1.68266,-2.90255,0
1.01664,6.87400,7.45291,1.69662,-2.89811,0
1.02587,6.86245,7.44518,1.71047,-2.89367,0
1.03503,6.85093,7.43735,1.72421,-2.88922,0
1.04412,6.83942,7.42941,1.73784,-2.88477,0
1.05313,6.82793,7.42137,1.75136,-2.88032,0
1.06207,6.81646,7.41323,1.76478,-2.87586,0
1.07095,6.80501,7.40498,1.77810,-2.87140,0
1.07976,6.79357,7.39664,1.79132,-2.86693,0
1.08850,6.78216,7.38819,1.80445,-2.86247,0
1.09718,6.77076,7.37965,1.81748,-2.85800,0
1.10580,6.75938,7.37101,1.83041,-2.85352,0
1.11436,6.74802,7.36227,1.84326,-2.84905,0
1.12286,6.73668,7.35343,1.85601,-2.84457,0
1.13130,6.72536,7.34450,1.86868,-2.84009,0
1.13968,6.71405,7.33547,1.88127,-2.83560,0
1.14801,6.70277,7.32635,1.89377,-2.83111,0
1.15628,6.69150,7.31713,1.90618,-2.82662,0
1.16450,6.68025,7.30782,1.91852,-2.82213,0
1.17266,6.66902,7.29841,1.93078,-2.81763,0
1.18077,6.65781,7.28892,1.94296,-2.81314,0
1.18883,6.64662,7.27933,1.95507,-2.80863,0
1.19685,6.63544,7.26966,1.96710,-2.80413,0
1.20481,6.62429,7.25989,1.97906,-2.79963,0
1.21272,6.61315,7.25004,1.99094,-2.79512,0
1.22059,6.60203,7.24010,2.00000,-2.79061,0
1.22842,6.59093,7.23007,2.00000,-2.78609,0
1.23626,6.57985,7.21995,2.00000,-2.78154,0
1.24409,6.56878,7.20975,2.00000,-2.77696,0
1.25192,6.55774,7.19946,2.00000,-2.77236,0
1.25975,6.54671,7.18909,2.00000,-2.76772,0
1.26758,6.53570,7.17864,2.00000,-2.76306,0
1.27542,6.52471,7.16810,2.00000,-2.75837,0
1.28325,6.51373,7.15748,2.00000,-2.75364,0
1.29108,6.50278,7.14678,2.00000,-2.74889,0
1.29891,6.49184,7.13600,2.00000,-2.74412,0
1.30674,6.48092,7.12514,2.00000,-2.73931,0
1.31458,6.47002,7.11420,2.00000,-2.73447,0
1.32241,6.45914,7.10319,2.00000,-2.72960,0
1.33024,6.44828,7.09209,2.00000,-2.72471,0
1.33807,6.43743,7.08092,2.00000,-2.71979,0
1.34590,6.42661,7.06967,2.00000,-2.71483,0
1.35374,6.41580,7.05835,2.00000,-2.70985,0
1.36157,6.40501,7.04695,2.00000,-2.70484,0
1.36940,6.39423,7.03548,2.00000,-2.69980,0
1.37723,6.38348,7.02394,2.00000,-2.69473,0
1.38507,6.37274,7.01233,2.00000,-2.68964,0
1.39290,6.36202,7.00064,2.00000,-2.68451,0
1.40073,6.35132,6.98888,2.00000,-2.67935,0
1.40856,6.34064,6.97705,2.00000,-2.67417,0
1.41639,6.32998,6.96516,2.00000,-2.66896,0
1.42423,6.31933,6.95319,2.00000,-2.66372,0
1.43206,6.30870,6.94116,2.00000,-2.65845,0
1.43989,6.29809,6.92906,2.00000,-2.65315,0
1.44772,6.28750,6.91690,2.00000,-2.64782,0
1.45555,6.27692,6.90466,2.00000,-2.64246,0
1.46339,6.26637,6.89237,2.00000,-2.63707,0
1.47122,6.25583,6.88001,2.00000,-2.63166,0
1.47905,6.24531,6.86759,2.00000,-2.62621,0
1.48688,6.23481,6.85511,2.00000,-2.62074,0
1.49471,6.22432,6.84256,2.00000,-2.61799,0
1.50255,6.21386,6.82995,2.00000,-2.61796,0
1.51038,6.20341,6.81729,2.00000,-2.61790,0
1.51821,6.19298,6.80456,2.00000,-2.61782,0
1.52604,6.18256,6.79177,2.00000,-2.61770,0
1.53387,6.17217,6.77893,2.00000,-2.61756,0
1.54171,6.16179,6.76603,2.00000,-2.61738,0
1.54954,6.15143,6.75308,2.00000,-2.61718,0
1.55737,6.14109,6.74007,2.00000,-2.61695,0
1.56520,6.13077,6.72700,2.00000,-2.61669,0
1.57303,6.12046,6.71388,2.00000,-2.61640,0
1.58087,6.11017,6.70071,2.00000,-2.61608,0
1.58870,6.09990,6.68748,2.00000,-2.61574,0
1.59653,6.08965,6.67420,2.00000,-2.61536,0
1.60436,6.07941,6.66087,2.00000,-2.61495,0
1.61219,6.06920,6.64749,2.00000,-2.61452,0
1.62003,6.05900,6.63407,2.00000,-2.61406,0
1.62786,6.04881,6.62059,2.00000,-2.61357,0
1.63569,6.03865,6.60706,2.00000,-2.61305,0
1.64352,6.02850,6.59349,2.00000,-2.61250,0
1.65135,6.01837,6.57987,2.00000,-2.61192,0
1.65919,6.00826,6.56621,2.00000,-2.61131,0
1.66702,5.99817,6.55250,2.00000,-2.61068,0
1.67485,5.98809,6.53874,2.00000,-2.61001,0
1.68268,5.97804,6.52495,2.00000,-2.60932,0
1.69051,5.96799,6.51111,2.00000,-2.60860,0
1.69835,5.95797,6.49722,2.00000,-2.60784,0
1.70618,5.94797,6.48330,2.00000,-2.60706,0
1.71401,5.93798,6.46934,2.00000,-2.60625,0
1.72184,5.92801,6.45533,2.00000,-2.60542,0
1.72967,5.91806,6.44129,2.00000,-2.60455,0
1.73751,5.90812,6.42721,2.00000,-2.60365,0
1.74534,5.89820,6.41309,2.00000,-2.60273,0
1.75317,5.88830,6.39894,2.00000,-2.60177,0
1.76100,5.87842,6.38475,1.99094,-2.60079,0
1.76887,5.86855,6.37052,1.97906,-2.59977,0
1.77679,5.85870,6.35626,1.96710,-2.59872,0
1.78475,5.84887,6.34197,1.95507,-2.59763,0
1.79276,5.83906,6.32764,1.94296,-2.59651,0
1.80082,5.82927,6.31328,1.93078,-2.59535,0
1.80894,5.81949,6.29889,1.91852,-2.59415,0
1.81710,5.80973,6.28447,1.90618,-2.59291,0
1.82532,5.79998,6.27002,1.89377,-2.59163,0
1.83359,5.79026,6.25554,1.88127,-2.59031,0
1.84192,5.78055,6.24103,1.86868,-2.58895,0
1.85030,5.77086,6.22649,1.85601,-2.58754,0
1.85874,5.76118,6.21193,1.84326,-2.58610,0
1.86724,5.75153,6.19734,1.83041,-2.58460,0
1.87579,5.74189,6.18272,1.81748,-2.58307,0
1.88441,5.73226,6.16809,1.80445,-2.58149,0
1.89309,5.72266,6.15342,1.79132,-2.57986,0
1.90184,5.71307,6.13874,1.77810,-2.57818,0
1.91065,5.70350,6.12403,1.76478,-2.57646,0
1.91952,5.69395,6.10930,1.75136,-2.57469,0
1.92847,5.68441,6.09455,1.73784,-2.57286,0
1.93748,5.67489,6.07977,1.72421,-2.57098,0
1.94656,5.66539,6.06498,1.71047,-2.56905,0
1.95572,5.65591,6.05018,1.69662,-2.56706,0
1.96495,5.64644,6.03535,1.68266,-2.56502,0
1.97426,5.63699,6.02050,1.66857,-2.56292,0
1.98365,5.62756,6.00564,1.65437,-2.56076,0
1.99312,5.61814,5.99077,1.64005,-2.55854,0
2.00267,5.60874,5.97588,1.62560,-2.55626,0
2.01231,5.59936,5.96097,1.61102,-2.55391,0
2.02203,5.59000,5.94605,1.59631,-2.55150,0
2.03184,5.58065,5.93112,1.58146,-2.54902,0
2.04175,5.57132,5.91618,1.56647,-2.54647,0
2.05175,5.56200,5.90123,1.55133,-2.54385,0
2.06184,5.55271,5.88626,1.53605,-2.54116,0
2.07204,5.54343,5.87129,1.52061,-2.53839,0
2.08234,5.53417,5.85631,1.50501,-2.53554,0
2.09275,5.52492,5.84132,1.48925,-2.53262,0
2.10327,5.51569,5.82632,1.47332,-2.52961,0
2.11390,5.50648,5.81132,1.45722,-2.52651,0
2.12465,5.49729,5.79631,1.44094,-2.52333,0
2.13552,5.48811,5.78129,1.42447,-2.52005,0
2.14652,5.47895,5.76627,1.40781,-2.51668,0
2.15764,5.46981,5.75125,1.39095,-2.51322,0
2.16891,5.46068,5.73622,1.37388,-2.50965,0
2.18031,5.45157,5.72120,1.35660,-2.50597,0
2.19185,5.44248,5.70617,1.33909,-2.50219,0
2.20355,5.43340,5.69114,1.32136,-2.49829,0
2.21541,5.42434,5.67611,1.30338,-2.49428,0
2.22742,5.41530,5.66108,1.28515,-2.49014,0
2.23961,5.40627,5.64606,1.26666,-2.48587,0
2.25198,5.39727,5.63103,1.24789,-2.48147,0
2.26453,5.38827,5.61601,1.22884,-2.47693,0
2.27728,5.37930,5.60100,1.20948,-2.47225,0
2.29023,5.37034,5.58599,1.18982,-2.46741,0
2.30339,5.36140,5.57098,1.16982,-2.46241,0
2.31678,5.35248,5.55598,1.14947,-2.45724,0
2.33041,5.34357,5.54099,1.12876,-2.45189,0
2.34429,5.33468,5.52600,1.10766,-2.44635,0
2.35843,5.32580,5.51103,1.08615,-2.44062,0
2.37285,5.31694,5.49606,1.06420,-2.43467,0
2.38757,5.30810,5.48110,1.04180,-2.42850,0
2.40261,5.29928,5.46616,1.01890,-2.42210,0
2.41798,5.29047,5.45122,0.99547,-2.41544,0
2.43372,5.28168,5.43630,0.97148,-2.40850,0
2.44984,5.27291,5.42139,0.94688,-2.40128,0
2.46638,5.26415,5.40650,0.92163,-2.39374,0
2.48338,5.25541,5.39162,0.89566,-2.38585,0
2.50087,5.24668,5.37675,0.86892,-2.37760,0
2.51889,5.23797,5.36190,0.84133,-2.36894,0
2.53751,5.22928,5.34707,0.81280,-2.35984,0
2.55678,5.22061,5.33225,0.78323,-2.35025,0
2.57678,5.21195,5.31746,0.75251,-2.34011,0
2.59760,5.20331,5.30268,0.72047,-2.32935,0
2.61934,5.19468,5.28792,0.68694,-2.31790,0
2.64214,5.18607,5.27319,0.65169,-2.30565,0
2.66618,5.17748,5.25847,0.61442,-2.29247,0
2.69167,5.16891,5.24378,0.57474,-2.27820,0
2.71893,5.16035,5.22911,0.53210,-2.26260,0
2.74837,5.15180,5.21446,0.48574,-2.24536,0
2.78061,5.14328,5.19984,0.43446,-2.22600,0
2.81667,5.13477,5.18524,0.37625,-2.20378,0
2.85830,5.12627,5.17067,0.30721,-2.17736,0
2.90929,5.11780,5.15613,0.21723,-2.14389,0
2.98140,5.10933,5.14161,0.00000,-2.09447,36880
