time,x_pos,y_pos,velocity,rotation,action
0.00010,7.60137,7.69675,0.00000,-3.14159,0
0.00020,7.60137,7.69675,0.12537,-3.14159,0
0.12488,7.58831,7.69660,0.17730,-3.14052,0
0.21304,7.57521,7.69617,0.21714,-3.13845,0
0.28503,7.56204,7.69545,0.25074,-3.13597,0
0.34736,7.54882,7.69444,0.28033,-3.13325,0
0.40312,7.53555,7.69316,0.30709,-3.13035,0
0.45402,7.52222,7.69159,0.33169,-3.12733,0
0.50115,7.50884,7.68975,0.35460,-3.12422,0
0.54523,7.49541,7.68763,0.37611,-3.12102,0
0.58679,7.48194,7.68525,0.39645,-3.11777,0
0.62622,7.46841,7.68259,0.41580,-3.11446,0
0.66381,7.45483,7.67967,0.43429,-3.11110,0
0.69980,7.44121,7.67648,0.45202,-3.10771,0
0.73438,7.42755,7.67303,0.46909,-3.10427,0
0.76770,7.41384,7.66933,0.48555,-3.10081,0
0.79989,7.40008,7.66537,0.50147,-3.09732,0
0.83106,7.38628,7.66115,0.51691,-3.09380,0
0.86130,7.37244,7.65669,0.53189,-3.09026,0
0.89069,7.35856,7.65197,0.54647,-3.08669,0
0.91929,7.34464,7.64701,0.56066,-3.08311,0
0.94717,7.33068,7.64181,0.57451,-3.07951,0
0.97438,7.31669,7.63637,0.58803,-3.07589,0
1.00096,7.30266,7.63068,0.60125,-3.07226,0
1.02696,7.28859,7.62477,0.61418,-3.06861,0
1.05241,7.27448,7.61862,0.62684,-3.06495,0
1.07735,7.26035,7.61224,0.63926,-3.06127,0
1.10180,7.24618,7.60563,0.65143,-3.05758,0
1.12579,7.23198,7.59879,0.66339,-3.05388,0
1.14935,7.21774,7.59174,0.67513,-3.05017,0
1.17251,7.20348,7.58446,0.68667,-3.04645,0
1.19527,7.18919,7.57696,0.69802,-3.04272,0
1.21766,7.17487,7.56925,0.70919,-3.03898,0
1.23970,7.16053,7.56133,0.72019,-3.03523,0
1.26141,7.14616,7.55320,0.73102,-3.03148,0
1.28279,7.13176,7.54486,0.74169,-3.02771,0
1.30386,7.11734,7.53631,0.75221,-3.02394,0
1.32464,7.10290,7.52757,0.76259,-3.02016,0
1.34514,7.08844,7.51862,0.77282,-3.01637,0
1.36537,7.07396,7.50948,0.78293,-3.01258,0
1.38533,7.05945,7.50014,0.79290,-3.00878,0
1.40505,7.04493,7.49061,0.80275,-3.00497,0
1.42452,7.03039,7.48089,0.81248,-3.00116,0
1.44376,7.01583,7.47098,0.82210,-2.99734,0
1.46277,7.00126,7.46089,0.83160,-2.99351,0
1.48157,6.98667,7.45061,0.84100,-2.98968,0
1.50015,6.97207,7.44016,0.85029,-2.98585,0
1.51853,6.95746,7.42953,0.85948,-2.98201,0
1.53672,6.94283,7.41873,0.86858,-2.97816,0
1.55472,6.92820,7.40775,0.87758,-2.97431,0
1.57253,6.91355,7.39661,0.88649,-2.97045,0
1.59016,6.89890,7.38529,0.89531,-2.96659,0
1.60762,6.88423,7.37382,0.90404,-2.96273,0
1.62491,6.86957,7.36218,0.91270,-2.95886,0
1.64204,6.85489,7.35038,0.92127,-2.95499,0
1.65900,6.84021,7.33843,0.92976,-2.95111,0
1.67581,6.82553,7.32633,0.93817,-2.94723,0
1.69247,6.81084,7.31407,0.94651,-2.94335,0
1.70899,6.79615,7.30166,0.95478,-2.93946,0
1.72536,6.78147,7.28911,0.96297,-2.93557,0
1.74159,6.76678,7.27641,0.97110,-2.93167,0
1.75769,6.75209,7.26358,0.97916,-2.92778,0
1.77365,6.73741,7.25060,0.98715,-2.92387,0
1.78949,6.72273,7.23749,0.99508,-2.91997,0
1.80519,6.70805,7.22424,1.00295,-2.91606,0
1.82078,6.69338,7.21087,1.01075,-2.91215,0
1.83624,6.67871,7.19736,1.01850,-2.90824,0
1.85159,6.66405,7.18373,1.02619,-2.90432,0
1.86682,6.64940,7.16998,1.03382,-2.90040,0
1.88194,6.63476,7.15611,1.04139,-2.89648,0
1.89695,6.62013,7.14212,1.04891,-2.89255,0
1.91185,6.60551,7.12801,1.05637,-2.88862,0
1.92665,6.59091,7.11379,1.06379,-2.88469,0
1.94134,6.57631,7.09946,1.07115,-2.88076,0
1.95594,6.56173,7.08502,1.07846,-2.87682,0
1.97043,6.54717,7.07048,1.08572,-2.87288,0
1.98483,6.53262,7.05583,1.09294,-2.86894,0
1.99913,6.51809,7.04108,1.10010,-2.86500,0
2.01334,6.50358,7.02624,1.10722,-2.86105,0
2.02746,6.48909,7.01130,1.11430,-2.85710,0
2.04148,6.47461,6.99627,1.12133,-2.85315,0
2.05542,6.46016,6.98115,1.12832,-2.84920,0
2.06928,6.44573,6.96594,1.13526,-2.84524,0
2.08304,6.43133,6.95064,1.14216,-2.84129,0
2.09673,6.41694,6.93527,1.14902,-2.83733,0
2.11033,6.40259,6.91981,1.15584,-2.83337,0
2.12386,6.38826,6.90428,1.16262,-2.82940,0
2.13730,6.37395,6.88867,1.16936,-2.82544,0
2.15067,6.35968,6.87299,1.17606,-2.82147,0
2.16396,6.34543,6.85724,1.18272,-2.81750,0
2.17718,6.33122,6.84142,1.18935,-2.81353,0
2.19032,6.31703,6.82554,1.19594,-2.80956,0
2.20339,6.30288,6.80960,1.20249,-2.80558,0
2.21639,6.28876,6.79360,1.20901,-2.80161,0
2.22932,6.27468,6.77754,1.21549,-2.79763,0
2.24218,6.26063,6.76143,1.22194,-2.79365,0
2.25497,6.24662,6.74526,1.22836,-2.78967,0
2.26769,6.23264,6.72905,1.23474,-2.78569,0
2.28035,6.21870,6.71279,1.24108,-2.78170,0
2.29295,6.20480,6.69648,1.24740,-2.77771,0
2.30548,6.19094,6.68014,1.25368,-2.77373,0
2.31794,6.17713,6.66375,1.25994,-2.76974,0
2.33035,6.16335,6.64733,1.26616,-2.76574,0
2.34270,6.14962,6.63087,1.27235,-2.76175,0
2.35498,6.13593,6.61439,1.27851,-2.75776,0
2.36721,6.12229,6.59787,1.28464,-2.75376,0
2.37937,6.10870,6.58133,1.29075,-2.74976,0
2.39148,6.09515,6.56477,1.29682,-2.74577,0
2.40354,6.08165,6.54818,1.30287,-2.74177,0
2.41553,6.06819,6.53158,1.30889,-2.73776,0
2.42748,6.05479,6.51496,1.31488,-2.73376,0
2.43936,6.04144,6.49833,1.32084,-2.72976,0
2.45120,6.02814,6.48168,1.32678,-2.72575,0
2.46298,6.01490,6.46503,1.33269,-2.72174,0
2.47471,6.00171,6.44837,1.33857,-2.71774,0
2.48639,5.98858,6.43171,1.34098,-2.71373,0
2.49804,5.97550,6.41505,1.33511,-2.70970,0
2.50975,5.96247,6.39839,1.32921,-2.70565,0
2.52151,5.94951,6.38173,1.32329,-2.70155,0
2.53332,5.93661,6.36509,1.31733,-2.69742,0
2.54519,5.92376,6.34845,1.31135,-2.69325,0
2.55711,5.91098,6.33182,1.30535,-2.68904,0
2.56908,5.89826,6.31521,1.29931,-2.68479,0
2.58111,5.88560,6.29862,1.29325,-2.68050,0
2.59320,5.87301,6.28204,1.28716,-2.67617,0
2.60534,5.86048,6.26549,1.28104,-2.67180,0
2.61754,5.84802,6.24896,1.27489,-2.66739,0
2.62980,5.83562,6.23246,1.26871,-2.66294,0
2.64212,5.82330,6.21599,1.26250,-2.65844,0
2.65450,5.81104,6.19956,1.25626,-2.65391,0
2.66695,5.79885,6.18316,1.24999,-2.64932,0
2.67945,5.78673,6.16679,1.24369,-2.64470,0
2.69202,5.77469,6.15047,1.23735,-2.64002,0
2.70465,5.76272,6.13419,1.23099,-2.63530,0
2.71735,5.75082,6.11795,1.22458,-2.63054,0
2.73011,5.73900,6.10176,1.21815,-2.62573,0
2.74295,5.72725,6.08563,1.21168,-2.62087,0
2.75585,5.71559,6.06954,1.20518,-2.61799,0
2.76882,5.70400,6.05351,1.19864,-2.61797,0
2.78186,5.69249,6.03754,1.19207,-2.61793,0
2.79497,5.68106,6.02164,1.18546,-2.61786,0
2.80815,5.66971,6.00579,1.17881,-2.61776,0
2.82141,5.65844,5.99001,1.17212,-2.61765,0
2.83475,5.64725,5.97430,1.16540,-2.61750,0
2.84816,5.63615,5.95866,1.15864,-2.61733,0
2.86165,5.62514,5.94309,1.15183,-2.61714,0
2.87522,5.61421,5.92760,1.14499,-2.61692,0
2.88888,5.60337,5.91218,1.13811,-2.61667,0
2.90261,5.59262,5.89685,1.13118,-2.61639,0
2.91643,5.58195,5.88160,1.12421,-2.61609,0
2.93033,5.57138,5.86644,1.11720,-2.61576,0
2.94432,5.56089,5.85137,1.11014,-2.61539,0
2.95840,5.55050,5.83639,1.10304,-2.61500,0
2.97257,5.54020,5.82150,1.09589,-2.61458,0
2.98684,5.53000,5.80671,1.08870,-2.61413,0
3.00119,5.51989,5.79202,1.08146,-2.61364,0
3.01565,5.50988,5.77743,1.07416,-2.61313,0
3.03020,5.49997,5.76294,1.06682,-2.61258,0
3.04485,5.49015,5.74856,1.05943,-2.61200,0
3.05960,5.48043,5.73429,1.05199,-2.61138,0
3.07446,5.47081,5.72013,1.04449,-2.61073,0
3.08943,5.46130,5.70609,1.03694,-2.61004,0
3.10450,5.45188,5.69216,1.02933,-2.60932,0
3.11969,5.44257,5.67835,1.02167,-2.60856,0
3.13499,5.43336,5.66466,1.01395,-2.60776,0
3.15040,5.42426,5.65110,1.00617,-2.60693,0
3.16594,5.41526,5.63767,0.99833,-2.60605,0
3.18159,5.40638,5.62436,0.99042,-2.60513,0
3.19738,5.39760,5.61119,0.98246,-2.60417,0
3.21329,5.38892,5.59815,0.97443,-2.60317,0
3.22933,5.38036,5.58525,0.96633,-2.60212,0
3.24550,5.37191,5.57249,0.95816,-2.60103,0
3.26182,5.36357,5.55987,0.94992,-2.59990,0
3.27827,5.35535,5.54740,0.94161,-2.59871,0
3.29487,5.34724,5.53508,0.93323,-2.59748,0
3.31162,5.33924,5.52290,0.92477,-2.59620,0
3.32852,5.33136,5.51088,0.91623,-2.59487,0
3.34558,5.32360,5.49901,0.90762,-2.59348,0
3.36281,5.31595,5.48730,0.89892,-2.59204,0
3.38019,5.30843,5.47575,0.89013,-2.59055,0
3.39775,5.30102,5.46437,0.88126,-2.58900,0
3.41549,5.29374,5.45314,0.87229,-2.58739,0
3.43341,5.28658,5.44209,0.86324,-2.58571,0
3.45152,5.27954,5.43121,0.85409,-2.58398,0
3.46982,5.27262,5.42050,0.84483,-2.58218,0
3.48832,5.26583,5.40996,0.83548,-2.58031,0
3.50703,5.25917,5.39961,0.82602,-2.57838,0
3.52595,5.25263,5.38943,0.81645,-2.57637,0
3.54510,5.24623,5.37944,0.80677,-2.57429,0
3.56447,5.23995,5.36964,0.79697,-2.57213,0
3.58409,5.23380,5.36002,0.78705,-2.56990,0
3.60395,5.22778,5.35059,0.77700,-2.56758,0
3.62406,5.22189,5.34136,0.76682,-2.56517,0
3.64445,5.21614,5.33232,0.75650,-2.56268,0
3.66511,5.21052,5.32348,0.74604,-2.56009,0
3.68606,5.20504,5.31485,0.73543,-2.55741,0
3.70732,5.19969,5.30641,0.72466,-2.55463,0
3.72889,5.19448,5.29819,0.71374,-2.55174,0
3.75079,5.18941,5.29017,0.70264,-2.54874,0
3.77303,5.18447,5.28236,0.69137,-2.54562,0
3.79564,5.17968,5.27477,0.67990,-2.54239,0
3.81863,5.17503,5.26739,0.66825,-2.53903,0
3.84202,5.17052,5.26024,0.65638,-2.53553,0
3.86583,5.16615,5.25330,0.64430,-2.53189,0
3.89009,5.16193,5.24659,0.63198,-2.52810,0
3.91483,5.15785,5.24010,0.61942,-2.52416,0
3.94006,5.15392,5.23385,0.60660,-2.52005,0
3.96583,5.15013,5.22783,0.59351,-2.51576,0
3.99217,5.14649,5.22204,0.58011,-2.51128,0
4.01911,5.14301,5.21648,0.56640,-2.50660,0
4.04671,5.13967,5.21117,0.55236,-2.50170,0
4.07501,5.13648,5.20610,0.53794,-2.49657,0
4.10406,5.13345,5.20127,0.52313,-2.49118,0
4.13394,5.13057,5.19670,0.50788,-2.48552,0
4.16472,5.12784,5.19237,0.49217,-2.47956,0
4.19648,5.12527,5.18829,0.47593,-2.47327,0
4.22932,5.12285,5.18447,0.45912,-2.46662,0
4.26337,5.12059,5.18090,0.44167,-2.45957,0
4.29876,5.11849,5.17760,0.42351,-2.45208,0
4.33567,5.11655,5.17455,0.40453,-2.44407,0
4.37431,5.11477,5.17178,0.38461,-2.43549,0
4.41495,5.11314,5.16927,0.36360,-2.42624,0
4.45794,5.11169,5.16703,0.34131,-2.41621,0
4.50373,5.11039,5.16506,0.31745,-2.40524,0
4.55297,5.10926,5.16337,0.29164,-2.39312,0
4.60657,5.10829,5.16196,0.26332,-2.37955,0
4.66593,5.10749,5.16082,0.23156,-2.36405,0
4.73343,5.10686,5.15997,0.19469,-2.34584,0
4.81372,5.10639,5.15941,0.14895,-2.32335,0
4.91866,5.10609,5.15913,0.08043,-2.29262,0
5.11299,5.10597,5.15914,0.05698,-2.23167,0
5.38729,5.10601,5.15945,0.13771,-2.13676,0
5.50080,5.10623,5.16005,0.12537,-2.09443,0
5.75016,5.10792,5.16366,0.00000,-2.09440,4112
5.75026,5.10792,5.16366,0.12537,-2.09440,0
5.87547,5.09528,5.14608,0.17730,-2.09440,0
5.96402,5.08140,5.13151,0.21714,-2.09440,0
6.03631,5.06652,5.11972,0.25074,-2.09440,0
6.09892,5.05091,5.11049,0.28033,-2.09440,0
6.15492,5.03481,5.10361,0.30709,-2.09440,0
6.20604,5.01848,5.09884,0.33169,-2.09440,0
6.25337,5.00215,5.09598,0.35460,-2.09440,0
6.29764,4.98609,5.09480,0.37611,-2.09440,0
6.33938,4.97055,5.09507,0.39645,-2.09440,0
6.37897,4.95577,5.09660,0.41580,-2.09440,0
6.41673,4.94201,5.09914,0.43429,-2.09440,0
6.45288,4.92952,5.10248,0.44424,-2.09440,0
6.48821,4.91855,5.10640,0.42619,-2.09440,0
6.52505,4.90935,5.11069,0.40733,-2.09440,0
6.56359,4.90217,5.11511,0.38756,-2.09440,0
6.60409,4.89726,5.11945,0.36672,-2.09440,0
6.64690,4.89487,5.12350,0.34462,-2.09440,0
6.69245,4.89526,5.12702,0.32101,-2.09440,0
6.74135,4.89867,5.12981,0.34462,-2.09440,0
6.78691,4.90535,5.13163,0.36672,-2.09440,0
6.82971,4.91557,5.13228,0.38756,-2.09440,0
6.87022,4.92956,5.13152,0.40733,-2.09440,0
6.90876,4.94758,5.12914,0.42619,-2.09440,0
6.94559,4.96987,5.12493,0.44424,-2.09440,0
7.01627,5.06494,5.09903,0.46159,-2.09440,83968
7.05016,5.06494,5.09903,0.47832,-2.09436,0
7.08286,5.08427,5.09290,0.49447,-2.09426,0
7.11450,5.10346,5.08673,0.51012,-2.09409,0
7.14517,5.12250,5.08054,0.52530,-2.09387,0
7.17495,5.14142,5.07432,0.54005,-2.09361,0
7.20391,5.16019,5.06807,0.55441,-2.09329,0
7.23213,5.17883,5.06180,0.56841,-2.09294,0
7.25965,5.19734,5.05549,0.58207,-2.09254,0
7.28653,5.21571,5.04916,0.59542,-2.09211,0
7.31280,5.23394,5.04280,0.60848,-2.09164,0
7.33851,5.25204,5.03641,0.62126,-2.09114,0
7.36369,5.27000,5.02998,0.63378,-2.09061,0
7.38838,5.28783,5.02354,0.64606,-2.09006,0
7.41259,5.30553,5.01706,0.65811,-2.08947,0
7.43636,5.32310,5.01055,0.66995,-2.08886,0
7.45971,5.34053,5.00401,0.68158,-2.08823,0
7.48266,5.35783,4.99745,0.69301,-2.08758,0
7.50524,5.37499,4.99085,0.70426,-2.08690,0
7.52745,5.39203,4.98422,0.71533,-2.08621,0
7.54932,5.40893,4.97757,0.72623,-2.08549,0
7.57086,5.42571,4.97088,0.73698,-2.08476,0
7.59209,5.44235,4.96417,0.74756,-2.08400,0
7.61301,5.45886,4.95742,0.75800,-2.08324,0
7.63365,5.47525,4.95065,0.76830,-2.08245,0
7.65401,5.49150,4.94384,0.77846,-2.08165,0
7.67411,5.50762,4.93701,0.78849,-2.08083,0
7.69395,5.52362,4.93014,0.79840,-2.08000,0
7.71354,5.53949,4.92324,0.80818,-2.07916,0
7.73290,5.55523,4.91632,0.81784,-2.07830,0
7.75202,5.57084,4.90936,0.82740,-2.07743,0
7.77093,5.58633,4.90237,0.83684,-2.07655,0
7.78963,5.60169,4.89535,0.84618,-2.07565,0
7.80811,5.61692,4.88830,0.85542,-2.07474,0
7.82640,5.63203,4.88122,0.86456,-2.07383,0
7.84450,5.64701,4.87411,0.87360,-2.07290,0
7.86240,5.66186,4.86697,0.88255,-2.07196,0
7.88013,5.67660,4.85980,0.89141,-2.07101,0
7.89768,5.69120,4.85259,0.90018,-2.07005,0
7.91506,5.70569,4.84535,0.90887,-2.06908,0
7.93227,5.72005,4.83809,0.91747,-2.06810,0
7.94932,5.73428,4.83079,0.92600,-2.06711,0
7.96621,5.74839,4.82345,0.93445,-2.06611,0
7.98295,5.76238,4.81609,0.94282,-2.06511,0
7.99955,5.77625,4.80870,0.95112,-2.06410,0
8.01599,5.79000,4.80127,0.95935,-2.06307,0
8.03230,5.80362,4.79381,0.96750,-2.06204,0
8.04847,5.81713,4.78632,0.97559,-2.06101,0
8.06450,5.83051,4.77880,0.98361,-2.05996,0
8.08041,5.84378,4.77124,0.99157,-2.05891,0
8.09619,5.85692,4.76366,0.99947,-2.05785,0
8.11184,5.86994,4.75603,1.00730,-2.05678,0
8.12737,5.88285,4.74838,1.01507,-2.05571,0
8.14278,5.89564,4.74070,1.02278,-2.05463,0
8.15807,5.90830,4.73298,1.03044,-2.05354,0
8.17326,5.92085,4.72523,1.03804,-2.05244,0
8.18833,5.93329,4.71744,1.04558,-2.05134,0
8.20329,5.94560,4.70963,1.05307,-2.05024,0
8.21814,5.95780,4.70178,1.06050,-2.04913,0
8.23289,5.96988,4.69389,1.06789,-2.04801,0
8.24754,5.98185,4.68598,1.07522,-2.04688,0
8.26209,5.99370,4.67803,1.08251,-2.04575,0
8.27654,6.00543,4.67004,1.08974,-2.04462,0
8.29090,6.01705,4.66203,1.09693,-2.04348,0
8.30516,6.02856,4.65398,1.10407,-2.04233,0
8.31933,6.03995,4.64589,1.11117,-2.04118,0
8.33341,6.05122,4.63777,1.11822,-2.04003,0
8.34740,6.06239,4.62962,1.12522,-2.03887,0
8.36130,6.07344,4.62144,1.13218,-2.03770,0
8.37512,6.08438,4.61322,1.13910,-2.03653,0
8.38885,6.09520,4.60496,1.14598,-2.03535,0
8.40250,6.10592,4.59668,1.15282,-2.03417,0
8.41607,6.11652,4.58835,1.15962,-2.03299,0
8.42956,6.12701,4.58000,1.16637,-2.03180,0
8.44298,6.13739,4.57160,1.17309,-2.03060,0
8.45631,6.14766,4.56318,1.17977,-2.02941,0
8.46957,6.15782,4.55472,1.18642,-2.02820,0
8.48276,6.16787,4.54622,1.19302,-2.02700,0
8.49587,6.17781,4.53769,1.19959,-2.02579,0
8.50891,6.18765,4.52913,1.20612,-2.02457,0
8.52188,6.19737,4.52053,1.21262,-2.02335,0
8.53478,6.20699,4.51189,1.21908,-2.02213,0
8.54761,6.21650,4.50322,1.22551,-2.02090,0
8.56038,6.22590,4.49451,1.23191,-2.01967,0
8.57308,6.23519,4.48577,1.23827,-2.01844,0
8.58571,6.24438,4.47699,1.24460,-2.01720,0
8.59828,6.25346,4.46818,1.25090,-2.01596,0
8.61079,6.26243,4.45933,1.25717,-2.01472,0
8.62323,6.27130,4.45045,1.26340,-2.01347,0
8.63561,6.28007,4.44153,1.26961,-2.01222,0
8.64793,6.28873,4.43257,1.27578,-2.01096,0
8.66020,6.29728,4.42358,1.28193,-2.00970,0
8.67240,6.30573,4.41455,1.28804,-2.00844,0
8.68454,6.31408,4.40549,1.29413,-2.00717,0
8.69663,6.32233,4.39639,1.30019,-2.00591,0
8.70866,6.33047,4.38725,1.30622,-2.00463,0
8.72064,6.33851,4.37808,1.31222,-2.00336,0
8.73256,6.34645,4.36887,1.31820,-2.00208,0
8.74443,6.35428,4.35962,1.32415,-2.00080,0
8.75624,6.36202,4.35034,1.33007,-1.99952,0
8.76801,6.36965,4.34102,1.33596,-1.99823,0
8.77971,6.37718,4.33166,1.34183,-1.99694,0
8.79137,6.38462,4.32227,1.34768,-1.99565,0
8.80298,6.39195,4.31284,1.35349,-1.99435,0
8.81454,6.39918,4.30337,1.35929,-1.99305,0
8.82605,6.40632,4.29386,1.36506,-1.99175,0
8.83751,6.41335,4.28432,1.37080,-1.99045,0
8.84892,6.42029,4.27474,1.37652,-1.98914,0
8.86028,6.42713,4.26512,1.38222,-1.98783,0
8.87160,6.43388,4.25546,1.38789,-1.98652,0
8.88287,6.44052,4.24577,1.39355,-1.98520,0
8.89410,6.44707,4.23604,1.39917,-1.98389,0
8.90528,6.45352,4.22627,1.40478,-1.98257,0
8.91642,6.45988,4.21646,1.41036,-1.98124,0
8.92751,6.46614,4.20662,1.41592,-1.97992,0
8.93856,6.47230,4.19673,1.42146,-1.97859,0
8.94956,6.47837,4.18681,1.42698,-1.97726,0
8.96052,6.48435,4.17685,1.43248,-1.97593,0
8.97145,6.49023,4.16685,1.43795,-1.97459,0
8.98232,6.49602,4.15681,1.44341,-1.97326,0
8.99316,6.50172,4.14674,1.44884,-1.97192,0
9.00396,6.50732,4.13662,1.45426,-1.97058,0
9.01472,6.51283,4.12647,1.45965,-1.96923,0
9.02543,6.51824,4.11628,1.46502,-1.96789,0
9.03611,6.52357,4.10605,1.47038,-1.96654,0
9.04675,6.52880,4.09578,1.47571,-1.96519,0
9.05735,6.53395,4.08547,1.48103,-1.96384,0
9.06791,6.53900,4.07512,1.48633,-1.96248,0
9.07844,6.54396,4.06473,1.49160,-1.96112,0
9.08893,6.54883,4.05430,1.49686,-1.95976,0
9.09938,6.55362,4.04383,1.50210,-1.95840,0
9.10979,6.55831,4.03333,1.50733,-1.95704,0
9.12017,6.56291,4.02278,1.51253,-1.95568,0
9.13052,6.56743,4.01219,1.51772,-1.95431,0
9.14082,6.57186,4.00157,1.52289,-1.95294,0
9.15110,6.57620,3.99090,1.52804,-1.95157,0
9.16133,6.58045,3.98020,1.53317,-1.95019,0
9.17154,6.58462,3.96945,1.53829,-1.94882,0
9.18171,6.58870,3.95866,1.54339,-1.94744,0
9.19184,6.59269,3.94784,1.54847,-1.94606,0
9.20194,6.59660,3.93697,1.55354,-1.94468,0
9.21201,6.60042,3.92606,1.55859,-1.94330,0
9.22205,6.60416,3.91511,1.56362,-1.94192,0
9.23205,6.60781,3.90412,1.56864,-1.94053,0
9.24203,6.61138,3.89309,1.57364,-1.93914,0
9.25197,6.61487,3.88202,1.57863,-1.93775,0
9.26188,6.61827,3.87091,1.58360,-1.93636,0
9.27176,6.62159,3.85976,1.58856,-1.93497,0
9.28160,6.62482,3.84857,1.59349,-1.93357,0
9.29142,6.62797,3.83733,1.59842,-1.93217,0
9.30121,6.63104,3.82605,1.60333,-1.93077,0
9.31096,6.63404,3.81474,1.60822,-1.92937,0
9.32069,6.63694,3.80338,1.61310,-1.92797,0
9.33039,6.63977,3.79198,1.61797,-1.92657,0
9.34006,6.64252,3.78053,1.62281,-1.92516,0
9.34970,6.64518,3.76905,1.62765,-1.92376,0
9.35931,6.64777,3.75752,1.63247,-1.92235,0
9.36889,6.65028,3.74596,1.63728,-1.92094,0
9.37845,6.65271,3.73435,1.64207,-1.91953,0
9.38797,6.65506,3.72269,1.64685,-1.91811,0
9.39747,6.65733,3.71100,1.65161,-1.91670,0
9.40694,6.65953,3.69926,1.65637,-1.91528,0
9.41639,6.66164,3.68748,1.66110,-1.91386,0
9.42581,6.66368,3.67566,1.66583,-1.91244,0
9.43520,6.66565,3.66380,1.67054,-1.91102,0
9.44456,6.66753,3.65189,1.67524,-1.90960,0
9.45390,6.66935,3.63994,1.67992,-1.90818,0
9.46321,6.67108,3.62795,1.68459,-1.90675,0
9.47250,6.67274,3.61591,1.68925,-1.90532,0
9.48176,6.67433,3.60383,1.69390,-1.90390,0
9.49099,6.67584,3.59171,1.69853,-1.90247,0
9.50020,6.67728,3.57955,1.70315,-1.90103,0
9.50939,6.67864,3.56734,1.70520,-1.89960,0
9.51856,6.67993,3.55509,1.70058,-1.89817,0
9.52776,6.68115,3.54280,1.69595,-1.89672,0
9.53699,6.68230,3.53046,1.69131,-1.89527,0
9.54624,6.68337,3.51808,1.68666,-1.89380,0
9.55551,6.68437,3.50565,1.68199,-1.89233,0
9.56481,6.68530,3.49318,1.67732,-1.89084,0
9.57414,6.68616,3.48067,1.67262,-1.88935,0
9.58349,6.68695,3.46811,1.66792,-1.88785,0
9.59287,6.68767,3.45551,1.66320,-1.88634,0
9.60228,6.68831,3.44286,1.65847,-1.88482,0
9.61171,6.68889,3.43017,1.65372,-1.88328,0
9.62117,6.68940,3.41744,1.64896,-1.88174,0
9.63066,6.68985,3.40466,1.64419,-1.88019,0
9.64017,6.69022,3.39184,1.63941,-1.87863,0
9.64971,6.69052,3.37897,1.63461,-1.87706,0
9.65928,6.69076,3.36606,1.62979,-1.87547,0
9.66888,6.69093,3.35310,1.62496,-1.87388,0
9.67851,6.69103,3.34010,1.62012,-1.87228,0
9.68816,6.69107,3.32705,1.61526,-1.87066,0
9.69785,6.69104,3.31396,1.61039,-1.86904,0
9.70756,6.69095,3.30082,1.60550,-1.86740,0
9.71731,6.69079,3.28764,1.60060,-1.86576,0
9.72708,6.69056,3.27441,1.59568,-1.86410,0
9.73689,6.69027,3.26114,1.59075,-1.86243,0
9.74672,6.68992,3.24782,1.58580,-1.86075,0
9.75658,6.68950,3.23445,1.58084,-1.85906,0
9.76648,6.68902,3.22104,1.57586,-1.85736,0
9.77641,6.68848,3.20759,1.57086,-1.85564,0
9.78636,6.68787,3.19409,1.56585,-1.85392,0
9.79636,6.68720,3.18054,1.56083,-1.85218,0
9.80638,6.68647,3.16694,1.55578,-1.85043,0
