time,x_pos,y_pos,velocity,rotation,action
0.00010,7.57096,7.67424,0.00000,-3.14159,0
0.00020,7.57096,7.67424,0.35479,-3.14159,0
0.04439,7.55774,7.67409,0.50176,-3.14082,0
0.07563,7.54446,7.67365,0.61452,-3.13935,0
0.10114,7.53113,7.67292,0.70959,-3.13758,0
0.12323,7.51775,7.67189,0.79334,-3.13563,0
0.14299,7.50431,7.67058,0.86907,-3.13356,0
0.16103,7.49083,7.66899,0.93870,-3.13140,0
0.17773,7.47730,7.66712,1.00351,-3.12918,0
0.19335,7.46371,7.66497,1.06438,-3.12690,0
0.20808,7.45008,7.66254,1.12196,-3.12457,0
0.22205,7.43640,7.65984,1.17672,-3.12221,0
0.23538,7.42268,7.65686,1.22904,-3.11981,0
0.24813,7.40891,7.65363,1.27923,-3.11738,0
0.26039,7.39510,7.65012,1.32752,-3.11493,0
0.27219,7.38125,7.64635,1.37411,-3.11246,0
0.28360,7.36735,7.64233,1.41918,-3.10997,0
0.29465,7.35342,7.63804,1.46285,-3.10745,0
0.30537,7.33944,7.63350,1.50527,-3.10492,0
0.31578,7.32543,7.62871,1.54651,-3.10238,0
0.32592,7.31138,7.62367,1.58669,-3.09982,0
0.33580,7.29729,7.61838,1.62587,-3.09725,0
0.34544,7.28316,7.61285,1.66413,-3.09466,0
0.35486,7.26900,7.60708,1.70153,-3.09207,0
0.36407,7.25481,7.60107,1.73813,-3.08946,0
0.37309,7.24059,7.59482,1.77397,-3.08685,0
0.38193,7.22633,7.58834,1.80910,-3.08422,0
0.39059,7.21204,7.58162,1.84357,-3.08159,0
0.39910,7.19773,7.57468,1.87740,-3.07895,0
0.40745,7.18338,7.56752,1.91063,-3.07630,0
0.41565,7.16901,7.56013,1.94329,-3.07364,0
0.42372,7.15461,7.55252,1.97541,-3.07098,0
0.43166,7.14019,7.54469,2.00702,-3.06831,0
0.43947,7.12574,7.53664,2.03814,-3.06563,0
0.44716,7.11127,7.52839,2.06879,-3.06295,0
0.45474,7.09677,7.51992,2.09899,-3.06026,0
0.46220,7.08226,7.51125,2.12877,-3.05756,0
0.46957,7.06772,7.50237,2.15813,-3.05486,0
0.47683,7.05316,7.49329,2.18710,-3.05216,0
0.48400,7.03859,7.48401,2.21569,-3.04945,0
0.49108,7.02400,7.47453,2.24392,-3.04674,0
0.49806,7.00939,7.46486,2.27179,-3.04402,0
0.50496,6.99476,7.45500,2.29933,-3.04129,0
0.51178,6.98012,7.44495,2.32654,-3.03857,0
0.51852,6.96547,7.43471,2.35344,-3.03584,0
0.52518,6.95081,7.42429,2.38003,-3.03310,0
0.53177,6.93613,7.41369,2.40633,-3.03036,0
0.53828,6.92145,7.40291,2.43235,-3.02762,0
0.54473,6.90675,7.39195,2.45809,-3.02487,0
0.55110,6.89205,7.38082,2.48356,-3.02212,0
0.55742,6.87734,7.36952,2.50877,-3.01937,0
0.56366,6.86262,7.35806,2.53374,-3.01661,0
0.56985,6.84790,7.34642,2.55846,-3.01385,0
0.57598,6.83318,7.33463,2.58294,-3.01109,0
0.58205,6.81845,7.32267,2.60720,-3.00833,0
0.58806,6.80371,7.31056,2.63123,-3.00556,0
0.59402,6.78898,7.29830,2.65504,-3.00279,0
0.59992,6.77425,7.28588,2.67864,-3.00001,0
0.60578,6.75951,7.27331,2.70203,-2.99724,0
0.61158,6.74478,7.26059,2.72523,-2.99446,0
0.61733,6.73005,7.24773,2.74823,-2.99168,0
0.62303,6.71533,7.23473,2.77103,-2.98889,0
0.62869,6.70061,7.22159,2.79365,-2.98611,0
0.63430,6.68589,7.20832,2.81609,-2.98332,0
0.63987,6.67119,7.19491,2.83836,-2.98053,0
0.64539,6.65649,7.18137,2.86044,-2.97774,0
0.65087,6.64180,7.16770,2.88236,-2.97494,0
0.65631,6.62712,7.15390,2.90412,-2.97214,0
0.66171,6.61244,7.13999,2.92571,-2.96934,0
0.66707,6.59779,7.12595,2.94714,-2.96654,0
0.67239,6.58314,7.11179,2.96842,-2.96374,0
0.67767,6.56851,7.09752,2.98955,-2.96093,0
0.68291,6.55389,7.08314,3.01053,-2.95813,0
0.68812,6.53929,7.06865,3.03136,-2.95532,0
0.69329,6.52471,7.05405,3.05206,-2.95251,0
0.69843,6.51014,7.03934,3.07261,-2.94970,0
0.70353,6.49559,7.02453,3.09303,-2.94688,0
0.70860,6.48107,7.00963,3.11331,-2.94406,0
0.71363,6.46656,6.99462,3.13346,-2.94125,0
0.71864,6.45208,6.97953,3.15348,-2.93843,0
0.72361,6.43761,6.96434,3.17338,-2.93561,0
0.72855,6.42318,6.94906,3.19315,-2.93278,0
0.73346,6.40876,6.93370,3.21280,-2.92996,0
0.73834,6.39438,6.91825,3.23233,-2.92713,0
0.74319,6.38002,6.90272,3.25174,-2.92431,0
0.74801,6.36568,6.88712,3.27104,-2.92148,0
0.75280,6.35138,6.87143,3.29023,-2.91865,0
0.75757,6.33711,6.85568,3.30930,-2.91582,0
0.76230,6.32287,6.83985,3.32827,-2.91298,0
0.76701,6.30866,6.82396,3.34712,-2.91015,0
0.77170,6.29448,6.80800,3.36588,-2.90732,0
0.77635,6.28034,6.79198,3.38452,-2.90448,0
0.78099,6.26623,6.77590,3.40307,-2.90164,0
0.78559,6.25216,6.75976,3.42151,-2.89880,0
0.79017,6.23812,6.74357,3.43986,-2.89596,0
0.79473,6.22412,6.72732,3.45811,-2.89312,0
0.79926,6.21017,6.71103,3.47626,-2.89028,0
0.80377,6.19625,6.69469,3.49432,-2.88743,0
0.80826,6.18237,6.67830,3.51229,-2.88459,0
0.81272,6.16854,6.66188,3.53016,-2.88174,0
0.81716,6.15475,6.64541,3.54794,-2.87889,0
0.82158,6.14100,6.62891,3.56564,-2.87604,0
0.82598,6.12730,6.61238,3.58325,-2.87319,0
0.83035,6.11364,6.59581,3.60077,-2.87034,0
0.83471,6.10003,6.57922,3.61821,-2.86749,0
0.83904,6.08647,6.56260,3.63556,-2.86463,0
0.84335,6.07296,6.54595,3.65283,-2.86178,0
0.84765,6.05950,6.52929,3.67002,-2.85893,0
0.85192,6.04609,6.51261,3.68713,-2.85607,0
0.85617,6.03273,6.49591,3.70416,-2.85321,0
0.86040,6.01942,6.47921,3.72112,-2.85035,0
0.86461,6.00617,6.46249,3.73799,-2.84749,0
0.86881,5.99298,6.44576,3.75479,-2.84463,0
0.87298,5.97984,6.42903,3.76741,-2.84177,0
0.87714,5.96675,6.41230,3.75066,-2.83891,0
0.88132,5.95373,6.39557,3.73384,-2.83601,0
0.88552,5.94076,6.37884,3.71695,-2.83310,0
0.88974,5.92786,6.36212,3.69998,-2.83015,0
0.89398,5.91502,6.34540,3.68293,-2.82718,0
0.89823,5.90224,6.32870,3.66580,-2.82418,0
0.90251,5.88952,6.31201,3.64859,-2.82115,0
0.90681,5.87686,6.29534,3.63130,-2.81809,0
0.91112,5.86428,6.27869,3.61392,-2.81500,0
0.91546,5.85175,6.26206,3.59647,-2.81188,0
0.91982,5.83930,6.24545,3.57892,-2.80873,0
0.92420,5.82691,6.22887,3.56129,-2.80556,0
0.92860,5.81460,6.21232,3.54358,-2.80235,0
0.93303,5.80235,6.19580,3.52577,-2.79911,0
0.93747,5.79017,6.17932,3.50787,-2.79583,0
0.94194,5.77807,6.16288,3.48988,-2.79253,0
0.94643,5.76604,6.14647,3.47180,-2.78919,0
0.95095,5.75408,6.13011,3.45363,-2.78582,0
0.95549,5.74220,6.11379,3.43535,-2.78241,0
0.96005,5.73040,6.09752,3.41698,-2.77898,0
0.96464,5.71867,6.08131,3.39851,-2.77550,0
0.96925,5.70703,6.06514,3.37994,-2.77199,0
0.97389,5.69546,6.04903,3.36127,-2.76845,0
0.97855,5.68397,6.03298,3.34249,-2.76486,0
0.98324,5.67256,6.01699,3.32361,-2.76124,0
0.98796,5.66124,6.00107,3.30462,-2.75758,0
0.99270,5.65000,5.98521,3.28552,-2.75389,0
0.99748,5.63884,5.96942,3.26630,-2.75015,0
1.00228,5.62777,5.95370,3.24698,-2.74637,0
1.00710,5.61679,5.93806,3.22753,-2.74256,0
1.01196,5.60589,5.92249,3.20797,-2.73870,0
1.01685,5.59508,5.90701,3.18829,-2.73480,0
1.02176,5.58436,5.89160,3.16849,-2.73085,0
1.02671,5.57373,5.87628,3.14857,-2.72687,0
1.03169,5.56319,5.86105,3.12851,-2.72283,0
1.03670,5.55275,5.84591,3.10833,-2.71875,0
1.04175,5.54240,5.83086,3.08801,-2.71463,0
1.04682,5.53214,5.81591,3.06756,-2.71046,0
1.05193,5.52198,5.80105,3.04698,-2.70624,0
1.05708,5.51192,5.78630,3.02625,-2.70197,0
1.06226,5.50195,5.77165,3.00538,-2.69765,0
1.06747,5.49208,5.75710,2.98436,-2.69328,0
1.07273,5.48231,5.74267,2.96320,-2.68885,0
1.07802,5.47264,5.72834,2.94188,-2.68438,0
1.08335,5.46308,5.71413,2.92041,-2.67985,0
1.08871,5.45361,5.70004,2.89878,-2.67526,0
1.09412,5.44425,5.68606,2.87698,-2.67061,0
1.09957,5.43500,5.67221,2.85502,-2.66591,0
1.10506,5.42585,5.65848,2.83289,-2.66115,0
1.11060,5.41680,5.64488,2.81059,-2.65632,0
1.11617,5.40787,5.63140,2.78810,-2.65144,0
1.12180,5.39904,5.61806,2.76544,-2.64648,0
1.12746,5.39032,5.60486,2.74258,-2.64147,0
1.13318,5.38171,5.59179,2.71954,-2.63638,0
1.13894,5.37322,5.57886,2.69630,-2.63123,0
1.14476,5.36484,5.56608,2.67285,-2.62601,0
1.15062,5.35657,5.55344,2.64920,-2.62071,0
1.15654,5.34841,5.54095,2.62533,-2.61799,0
1.16251,5.34037,5.52861,2.60125,-2.61796,0
1.16854,5.33245,5.51642,2.57694,-2.61791,0
1.17462,5.32465,5.50439,2.55240,-2.61782,0
1.18077,5.31696,5.49252,2.52762,-2.61770,0
1.18697,5.30940,5.48081,2.50259,-2.61756,0
1.19323,5.30195,5.46926,2.47732,-2.61738,0
1.19956,5.29463,5.45788,2.45178,-2.61716,0
1.20595,5.28743,5.44667,2.42597,-2.61692,0
1.21242,5.28035,5.43563,2.39989,-2.61663,0
1.21895,5.27340,5.42476,2.37352,-2.61631,0
1.22555,5.26657,5.41408,2.34685,-2.61596,0
1.23223,5.25987,5.40357,2.31988,-2.61556,0
1.23899,5.25330,5.39324,2.29258,-2.61513,0
1.24583,5.24686,5.38310,2.26496,-2.61465,0
1.25275,5.24054,5.37315,2.23700,-2.61413,0
1.25976,5.23436,5.36339,2.20869,-2.61356,0
1.26685,5.22831,5.35382,2.18001,-2.61295,0
1.27405,5.22239,5.34444,2.15094,-2.61229,0
1.28133,5.21661,5.33527,2.12148,-2.61158,0
1.28872,5.21096,5.32629,2.09160,-2.61081,0
1.29622,5.20545,5.31752,2.06129,-2.60999,0
1.30382,5.20007,5.30895,2.03053,-2.60912,0
1.31154,5.19483,5.30059,1.99929,-2.60818,0
1.31939,5.18973,5.29245,1.96756,-2.60718,0
1.32735,5.18478,5.28452,1.93530,-2.60612,0
1.33545,5.17996,5.27680,1.90250,-2.60498,0
1.34369,5.17528,5.26930,1.86913,-2.60378,0
1.35208,5.17075,5.26203,1.83515,-2.60249,0
1.36062,5.16636,5.25498,1.80052,-2.60113,0
1.36933,5.16211,5.24816,1.76522,-2.59968,0
1.37821,5.15801,5.24156,1.72920,-2.59814,0
1.38728,5.15406,5.23520,1.69241,-2.59651,0
1.39654,5.15026,5.22908,1.65480,-2.59477,0
1.40601,5.14660,5.22319,1.61632,-2.59293,0
1.41571,5.14310,5.21754,1.57690,-2.59096,0
1.42565,5.13974,5.21214,1.53647,-2.58887,0
1.43586,5.13654,5.20698,1.49494,-2.58665,0
1.44634,5.13349,5.20207,1.45223,-2.58428,0
1.45714,5.13060,5.19740,1.40822,-2.58174,0
1.46827,5.12786,5.19300,1.36280,-2.57903,0
1.47977,5.12528,5.18885,1.31580,-2.57613,0
1.49169,5.12285,5.18495,1.26706,-2.57302,0
1.50406,5.12058,5.18132,1.21638,-2.56967,0
1.51695,5.11847,5.17796,1.16348,-2.56605,0
1.53042,5.11652,5.17486,1.10807,-2.56212,0
1.54457,5.11473,5.17203,1.04973,-2.55785,0
1.55950,5.11311,5.16947,0.98796,-2.55317,0
1.57537,5.11164,5.16718,0.92205,-2.54800,0
1.59237,5.11034,5.16517,0.85106,-2.54224,0
1.61079,5.10921,5.16345,0.77358,-2.53575,0
1.63106,5.10824,5.16200,0.68742,-2.52829,0
1.65386,5.10744,5.16084,0.58878,-2.51952,0
1.68049,5.10681,5.15997,0.46987,-2.50876,0
1.71385,5.10634,5.15939,0.30806,-2.49449,0
1.76474,5.10605,5.15910,0.08177,-2.47103,0
1.95647,5.10593,5.15910,0.05609,-2.36435,0
2.23594,5.10598,5.15941,0.22050,-2.15704,0
2.30704,5.10620,5.16001,0.35479,-2.09449,0
2.39541,5.10792,5.16366,0.00000,-2.09440,4112
2.39551,5.10792,5.16366,0.35479,-2.09440,0
2.43975,5.09528,5.14608,0.50176,-2.09440,0
2.47104,5.08140,5.13151,0.61452,-2.09440,0
2.49658,5.06652,5.11972,0.70959,-2.09440,0
2.51871,5.05091,5.11049,0.79334,-2.09440,0
2.53849,5.03481,5.10361,0.86907,-2.09440,0
2.55656,5.01848,5.09884,0.93870,-2.09440,0
2.57328,5.00215,5.09598,1.00351,-2.09440,0
2.58892,4.98609,5.09480,1.06438,-2.09440,0
2.60367,4.97055,5.09507,1.06547,-2.09440,0
2.61841,4.95577,5.09660,1.00466,-2.09440,0
2.63403,4.94201,5.09914,0.93993,-2.09440,0
2.65073,4.92952,5.10248,0.87039,-2.09440,0
2.66877,4.91855,5.10640,0.79480,-2.09440,0
2.68852,4.90935,5.11069,0.71121,-2.09440,0
2.71059,4.90217,5.11511,0.61640,-2.09440,0
2.73606,4.89726,5.11945,0.50405,-2.09440,0
2.76721,4.89487,5.12350,0.35803,-2.09440,0
2.81105,4.89526,5.12702,0.32101,-2.09440,0
2.85996,4.89867,5.12981,0.47846,-2.09440,0
2.89277,4.90535,5.13163,0.59566,-2.09440,0
2.91912,4.91557,5.13228,0.69332,-2.09440,0
2.94176,4.92956,5.13152,0.77882,-2.09440,0
2.96192,4.94758,5.12914,0.85583,-2.09440,0
2.98026,4.96987,5.12493,0.92646,-2.09440,0
3.01415,5.06494,5.09903,0.99207,-2.09440,82944
3.02992,5.06494,5.09903,1.05360,-2.09434,0
3.04477,5.08427,5.09290,1.11174,-2.09418,0
3.05884,5.10346,5.08673,1.16698,-2.09393,0
3.07224,5.12250,5.08054,1.21972,-2.09360,0
3.08507,5.14142,5.07432,1.27027,-2.09322,0
3.09738,5.16019,5.06807,1.31889,-2.09277,0
3.10925,5.17883,5.06180,1.36578,-2.09227,0
3.12070,5.19734,5.05549,1.41111,-2.09173,0
3.13179,5.21571,5.04916,1.45503,-2.09115,0
3.14254,5.23394,5.04280,1.49766,-2.09053,0
3.15298,5.25204,5.03641,1.53911,-2.08987,0
3.16315,5.27000,5.02998,1.57948,-2.08919,0
3.17305,5.28783,5.02354,1.61884,-2.08847,0
3.18271,5.30553,5.01706,1.65726,-2.08773,0
3.19215,5.32310,5.01055,1.69481,-2.08696,0
3.20138,5.34053,5.00401,1.73155,-2.08617,0
3.21042,5.35783,4.99745,1.76753,-2.08536,0
3.21927,5.37499,4.99085,1.80278,-2.08453,0
3.22795,5.39203,4.98422,1.83736,-2.08367,0
3.23646,5.40893,4.97757,1.87131,-2.08280,0
3.24482,5.42571,4.97088,1.90464,-2.08191,0
3.25303,5.44235,4.96417,1.93741,-2.08101,0
3.26111,5.45886,4.95742,1.96962,-2.08009,0
3.26905,5.47525,4.95065,2.00132,-2.07915,0
3.27687,5.49150,4.94384,2.03253,-2.07821,0
3.28456,5.50762,4.93701,2.06326,-2.07724,0
3.29215,5.52362,4.93014,2.09355,-2.07627,0
3.29962,5.53949,4.92324,2.12340,-2.07528,0
3.30699,5.55523,4.91632,2.15283,-2.07428,0
3.31425,5.57084,4.90936,2.18187,-2.07327,0
3.32142,5.58633,4.90237,2.21053,-2.07225,0
3.32850,5.60169,4.89535,2.23882,-2.07122,0
3.33549,5.61692,4.88830,2.26676,-2.07017,0
3.34239,5.63203,4.88122,2.29436,-2.06912,0
3.34921,5.64701,4.87411,2.32163,-2.06806,0
3.35594,5.66186,4.86697,2.34858,-2.06699,0
3.36261,5.67660,4.85980,2.37523,-2.06591,0
3.36919,5.69120,4.85259,2.40158,-2.06483,0
3.37571,5.70569,4.84535,2.42765,-2.06373,0
3.38215,5.72005,4.83809,2.45344,-2.06263,0
3.38853,5.73428,4.83079,2.47896,-2.06152,0
3.39484,5.74839,4.82345,2.50422,-2.06040,0
3.40108,5.76238,4.81609,2.52923,-2.05928,0
3.40727,5.77625,4.80870,2.55399,-2.05815,0
3.41339,5.79000,4.80127,2.57852,-2.05701,0
3.41946,5.80362,4.79381,2.60281,-2.05586,0
3.42547,5.81713,4.78632,2.62688,-2.05471,0
3.43143,5.83051,4.77880,2.65074,-2.05355,0
3.43733,5.84378,4.77124,2.67437,-2.05239,0
3.44318,5.85692,4.76366,2.69781,-2.05122,0
3.44897,5.86994,4.75603,2.72104,-2.05005,0
3.45472,5.88285,4.74838,2.74407,-2.04886,0
3.46042,5.89564,4.74070,2.76691,-2.04768,0
3.46608,5.90830,4.73298,2.78956,-2.04649,0
3.47169,5.92085,4.72523,2.81204,-2.04529,0
3.47725,5.93329,4.71744,2.83433,-2.04409,0
3.48277,5.94560,4.70963,2.85645,-2.04288,0
3.48825,5.95780,4.70178,2.87840,-2.04167,0
3.49368,5.96988,4.69389,2.90018,-2.04046,0
3.49907,5.98185,4.68598,2.92180,-2.03924,0
3.50443,5.99370,4.67803,2.94327,-2.03801,0
3.50974,6.00543,4.67004,2.96457,-2.03678,0
3.51502,6.01705,4.66203,2.98573,-2.03555,0
3.52026,6.02856,4.65398,3.00674,-2.03431,0
3.52546,6.03995,4.64589,3.02760,-2.03307,0
3.53063,6.05122,4.63777,3.04831,-2.03182,0
3.53576,6.06239,4.62962,3.06889,-2.03057,0
3.54086,6.07344,4.62144,3.08933,-2.02932,0
3.54592,6.08438,4.61322,3.10964,-2.02806,0
3.55095,6.09520,4.60496,3.12981,-2.02680,0
3.55595,6.10592,4.59668,3.14986,-2.02554,0
3.56092,6.11652,4.58835,3.16978,-2.02427,0
3.56585,6.12701,4.58000,3.18957,-2.02300,0
3.57076,6.13739,4.57160,3.20924,-2.02172,0
3.57563,6.14766,4.56318,3.22880,-2.02044,0
3.58048,6.15782,4.55472,3.24823,-2.01916,0
3.58529,6.16787,4.54622,3.26755,-2.01788,0
3.59008,6.17781,4.53769,3.28676,-2.01659,0
3.59484,6.18765,4.52913,3.30585,-2.01530,0
3.59957,6.19737,4.52053,3.32483,-2.01400,0
3.60428,6.20699,4.51189,3.34371,-2.01271,0
3.60896,6.21650,4.50322,3.36248,-2.01141,0
3.61361,6.22590,4.49451,3.38115,-2.01010,0
3.61824,6.23519,4.48577,3.39971,-2.00880,0
3.62284,6.24438,4.47699,3.41817,-2.00749,0
3.62741,6.25346,4.46818,3.43654,-2.00618,0
3.63197,6.26243,4.45933,3.45480,-2.00486,0
3.63649,6.27130,4.45045,3.47297,-2.00354,0
3.64100,6.28007,4.44153,3.49105,-2.00222,0
3.64548,6.28873,4.43257,3.50903,-2.00090,0
3.64994,6.29728,4.42358,3.52692,-1.99958,0
3.65437,6.30573,4.41455,3.54472,-1.99825,0
3.65879,6.31408,4.40549,3.56244,-1.99692,0
3.66318,6.32233,4.39639,3.58006,-1.99559,0
3.66755,6.33047,4.38725,3.59760,-1.99425,0
3.67190,6.33851,4.37808,3.61505,-1.99291,0
3.67622,6.34645,4.36887,3.63242,-1.99157,0
3.68053,6.35428,4.35962,3.64970,-1.99023,0
3.68482,6.36202,4.35034,3.66691,-1.98889,0
3.68908,6.36965,4.34102,3.68403,-1.98754,0
3.69333,6.37718,4.33166,3.70108,-1.98619,0
3.69756,6.38462,4.32227,3.71805,-1.98484,0
3.70176,6.39195,4.31284,3.73494,-1.98349,0
3.70595,6.39918,4.30337,3.75175,-1.98213,0
3.71012,6.40632,4.29386,3.76849,-1.98078,0
3.71427,6.41335,4.28432,3.78515,-1.97942,0
3.71841,6.42029,4.27474,3.80174,-1.97806,0
3.72252,6.42713,4.26512,3.81826,-1.97669,0
3.72662,6.43388,4.25546,3.83471,-1.97533,0
3.73070,6.44052,4.24577,3.85109,-1.97396,0
3.73476,6.44707,4.23604,3.86740,-1.97259,0
3.73880,6.45352,4.22627,3.88364,-1.97122,0
3.74283,6.45988,4.21646,3.89981,-1.96984,0
3.74684,6.46614,4.20662,3.91592,-1.96847,0
3.75084,6.47230,4.19673,3.93196,-1.96709,0
3.75482,6.47837,4.18681,3.94793,-1.96571,0
3.75878,6.48435,4.17685,3.96384,-1.96433,0
3.76273,6.49023,4.16685,3.97969,-1.96295,0
3.76666,6.49602,4.15681,3.99547,-1.96157,0
3.77057,6.50172,4.14674,4.01120,-1.96018,0
3.77447,6.50732,4.13662,4.02686,-1.95879,0
3.77836,6.51283,4.12647,4.04246,-1.95740,0
3.78223,6.51824,4.11628,4.05799,-1.95601,0
3.78608,6.52357,4.10605,4.07348,-1.95462,0
3.78992,6.52880,4.09578,4.08890,-1.95323,0
3.79375,6.53395,4.08547,4.10426,-1.95183,0
3.79756,6.53900,4.07512,4.11957,-1.95043,0
3.80136,6.54396,4.06473,4.13482,-1.94903,0
3.80514,6.54883,4.05430,4.15001,-1.94763,0
3.80891,6.55362,4.04383,4.16515,-1.94623,0
3.81267,6.55831,4.03333,4.18023,-1.94483,0
3.81641,6.56291,4.02278,4.19526,-1.94342,0
3.82014,6.56743,4.01219,4.21024,-1.94202,0
3.82385,6.57186,4.00157,4.22516,-1.94061,0
3.82756,6.57620,3.99090,4.24003,-1.93920,0
3.83124,6.58045,3.98020,4.25485,-1.93779,0
3.83492,6.58462,3.96945,4.26962,-1.93637,0
3.83859,6.58870,3.95866,4.28433,-1.93496,0
3.84224,6.59269,3.94784,4.29900,-1.93355,0
3.84588,6.59660,3.93697,4.31361,-1.93213,0
3.84950,6.60042,3.92606,4.32818,-1.93071,0
3.85312,6.60416,3.91511,4.34270,-1.92929,0
3.85672,6.60781,3.90412,4.35717,-1.92787,0
3.86031,6.61138,3.89309,4.37159,-1.92645,0
3.86389,6.61487,3.88202,4.38596,-1.92502,0
3.86745,6.61827,3.87091,4.40029,-1.92360,0
3.87101,6.62159,3.85976,4.41457,-1.92217,0
3.87455,6.62482,3.84857,4.42880,-1.92075,0
3.87809,6.62797,3.83733,4.44299,-1.91932,0
3.88161,6.63104,3.82605,4.45714,-1.91789,0
3.88512,6.63404,3.81474,4.47123,-1.91646,0
3.88862,6.63694,3.80338,4.48529,-1.91502,0
3.89210,6.63977,3.79198,4.49930,-1.91359,0
3.89558,6.64252,3.78053,4.51327,-1.91216,0
3.89905,6.64518,3.76905,4.52719,-1.91072,0
3.90250,6.64777,3.75752,4.54107,-1.90928,0
3.90595,6.65028,3.74596,4.55491,-1.90784,0
3.90938,6.65271,3.73435,4.56871,-1.90640,0
3.91281,6.65506,3.72269,4.58246,-1.90496,0
3.91622,6.65733,3.71100,4.59618,-1.90352,0
3.91962,6.65953,3.69926,4.60985,-1.90208,0
3.92302,6.66164,3.68748,4.62348,-1.90063,0
3.92640,6.66368,3.67566,4.63708,-1.89919,0
3.92977,6.66565,3.66380,4.65063,-1.89774,0
3.93314,6.66753,3.65189,4.66414,-1.89629,0
3.93649,6.66935,3.63994,4.67762,-1.89485,0
3.93984,6.67108,3.62795,4.69105,-1.89340,0
3.94317,6.67274,3.61591,4.70445,-1.89194,0
3.94650,6.67433,3.60383,4.71781,-1.89049,0
3.94981,6.67584,3.59171,4.73113,-1.88904,0
3.95312,6.67728,3.57955,4.74442,-1.88759,0
3.95642,6.67864,3.56734,4.75767,-1.88613,0
3.95970,6.67993,3.55509,4.77088,-1.88467,0
3.96298,6.68115,3.54280,4.78405,-1.88322,0
3.96625,6.68230,3.53046,4.78644,-1.88176,0
3.96952,6.68337,3.51808,4.77327,-1.88030,0
3.97280,6.68437,3.50565,4.76007,-1.87883,0
3.97608,6.68530,3.49318,4.74682,-1.87735,0
3.97938,6.68616,3.48067,4.73355,-1.87586,0
3.98269,6.68695,3.46811,4.72023,-1.87436,0
3.98600,6.68767,3.45551,4.70688,-1.87285,0
3.98932,6.68831,3.44286,4.69349,-1.87133,0
3.99266,6.68889,3.43017,4.68006,-1.86980,0
3.99600,6.68940,3.41744,4.66659,-1.86827,0
3.99935,6.68985,3.40466,4.65308,-1.86672,0
4.00271,6.69022,3.39184,4.63954,-1.86516,0
4.00608,6.69052,3.37897,4.62595,-1.86360,0
4.00947,6.69076,3.36606,4.61233,-1.86202,0
4.01286,6.69093,3.35310,4.59866,-1.86043,0
4.01626,6.69103,3.34010,4.58495,-1.85884,0
4.01967,6.69107,3.32705,4.57121,-1.85723,0
4.02309,6.69104,3.31396,4.55742,-1.85561,0
4.02653,6.69095,3.30082,4.54358,-1.85398,0
4.02997,6.69079,3.28764,4.52971,-1.85235,0
4.03342,6.69056,3.27441,4.51580,-1.85070,0
4.03689,6.69027,3.26114,4.50184,-1.84904,0
4.04036,6.68992,3.24782,4.48783,-1.84737,0
4.04385,6.68950,3.23445,4.47379,-1.84569,0
4.04734,6.68902,3.22104,4.45970,-1.84400,0
4.05085,6.68848,3.20759,4.44556,-1.84229,0
4.05437,6.68787,3.19409,4.43138,-1.84058,0
4.05790,6.68720,3.18054,4.41715,-1.83885,0
4.06144,6.68647,3.16694,4.40288,-1.83712,0
4.06500,6.68568,3.15330,4.38856,-1.83537,0
4.06856,6.68483,3.13962,4.37420,-1.83361,0
4.07214,6.68391,3.12589,4.35979,-1.83260,0
