time,x_pos,y_pos,velocity,rotation,action
0.00010,7.56503,0.34807,0.00000,-3.14159,16
0.00020,7.56503,0.34807,0.35451,-3.14159,0
0.04434,7.55032,0.35647,0.50135,3.14021,0
0.07556,7.53568,0.36489,0.61403,3.13756,0
0.10105,7.52110,0.37332,0.70902,3.13438,0
0.12312,7.50657,0.38178,0.79270,3.13089,0
0.14286,7.49211,0.39026,0.86836,3.12718,0
0.16088,7.47771,0.39876,0.93794,3.12331,0
0.17757,7.46336,0.40729,1.00270,3.11931,0
0.19318,7.44907,0.41583,1.06352,3.11522,0
0.20789,7.43485,0.42439,1.12105,3.11105,0
0.22185,7.42068,0.43298,1.17577,3.10681,0
0.23516,7.40656,0.44158,1.22805,3.10251,0
0.24790,7.39251,0.45021,1.27820,3.09816,0
0.26015,7.37851,0.45886,1.32645,3.09376,0
0.27195,7.36457,0.46753,1.37300,3.08932,0
0.28334,7.35068,0.47622,1.41803,3.08484,0
0.29438,7.33685,0.48493,1.46167,3.08033,0
0.30509,7.32308,0.49366,1.50405,3.07580,0
0.31549,7.30936,0.50242,1.54526,3.07123,0
0.32562,7.29570,0.51119,1.58541,3.06664,0
0.33549,7.28209,0.51999,1.62456,3.06202,0
0.34512,7.26854,0.52881,1.66279,3.05739,0
0.35454,7.25504,0.53765,1.70016,3.05273,0
0.36374,7.24159,0.54651,1.73673,3.04806,0
0.37275,7.22820,0.55540,1.77254,3.04336,0
0.38158,7.21487,0.56431,1.80764,3.03865,0
0.39024,7.20158,0.57323,1.84208,3.03393,0
0.39873,7.18835,0.58219,1.87588,3.02919,0
0.40708,7.17517,0.59116,1.90908,3.02443,0
0.41527,7.16204,0.60016,1.94172,3.01967,0
0.42333,7.14896,0.60917,1.97382,3.01489,0
0.43126,7.13594,0.61821,2.00540,3.01009,0
0.43907,7.12296,0.62728,2.03649,3.00529,0
0.44675,7.11004,0.63636,2.06712,3.00048,0
0.45432,7.09717,0.64547,2.09730,2.99565,0
0.46178,7.08434,0.65460,2.12705,2.99082,0
0.46914,7.07157,0.66375,2.15639,2.98597,0
0.47640,7.05885,0.67293,2.18533,2.98112,0
0.48356,7.04617,0.68213,2.21390,2.97626,0
0.49063,7.03354,0.69135,2.24211,2.97139,0
0.49761,7.02097,0.70059,2.26996,2.96651,0
0.50450,7.00844,0.70986,2.29748,2.96163,0
0.51131,6.99596,0.71915,2.32467,2.95673,0
0.51805,6.98352,0.72847,2.35154,2.95183,0
0.52470,6.97114,0.73780,2.37811,2.94692,0
0.53128,6.95880,0.74716,2.40439,2.94201,0
0.53779,6.94651,0.75655,2.43039,2.93709,0
0.54423,6.93426,0.76595,2.45610,2.93216,0
0.55060,6.92206,0.77539,2.48156,2.92723,0
0.55691,6.90990,0.78484,2.50675,2.92229,0
0.56315,6.89779,0.79432,2.53169,2.91734,0
0.56933,6.88573,0.80382,2.55639,2.91239,0
0.57545,6.87371,0.81334,2.58086,2.90743,0
0.58152,6.86174,0.82289,2.60509,2.90247,0
0.58752,6.84980,0.83247,2.62910,2.89751,0
0.59348,6.83792,0.84206,2.65290,2.89253,0
0.59938,6.82607,0.85168,2.67648,2.88756,0
0.60522,6.81427,0.86133,2.69985,2.88258,0
0.61102,6.80252,0.87100,2.72303,2.87759,0
0.61677,6.79080,0.88069,2.74601,2.87260,0
0.62247,6.77913,0.89041,2.76880,2.86760,0
0.62812,6.76750,0.90015,2.79140,2.86261,0
0.63372,6.75590,0.90992,2.81382,2.85760,0
0.63929,6.74436,0.91971,2.83606,2.85260,0
0.64480,6.73285,0.92952,2.85814,2.84758,0
0.65028,6.72138,0.93936,2.88004,2.84257,0
0.65571,6.70996,0.94923,2.90177,2.83755,0
0.66111,6.69857,0.95912,2.92335,2.83253,0
0.66646,6.68722,0.96903,2.94476,2.82750,0
0.67177,6.67591,0.97897,2.96603,2.82247,0
0.67705,6.66465,0.98893,2.98714,2.81744,0
0.68229,6.65342,0.99892,3.00810,2.81240,0
0.68749,6.64223,1.00893,3.02892,2.80736,0
0.69266,6.63107,1.01897,3.04959,2.80232,0
0.69779,6.61996,1.02904,3.07013,2.79727,0
0.70289,6.60888,1.03913,3.09053,2.79222,0
0.70795,6.59784,1.04924,3.11080,2.78717,0
0.71298,6.58683,1.05938,3.13093,2.78211,0
0.71798,6.57587,1.06955,3.15094,2.77705,0
0.72295,6.56493,1.07974,3.17082,2.77199,0
0.72788,6.55404,1.08996,3.19057,2.76693,0
0.73279,6.54318,1.10020,3.21021,2.76186,0
0.73766,6.53235,1.11047,3.22972,2.75679,0
0.74251,6.52156,1.12076,3.24912,2.75172,0
0.74733,6.51081,1.13108,3.26840,2.74664,0
0.75211,6.50009,1.14142,3.28757,2.74156,0
0.75687,6.48940,1.15180,3.30663,2.73648,0
0.76161,6.47875,1.16219,3.32558,2.73140,0
0.76631,6.46813,1.17262,3.34442,2.72632,0
0.77099,6.45754,1.18307,3.36316,2.72123,0
0.77565,6.44699,1.19354,3.38179,2.71614,0
0.78027,6.43647,1.20404,3.40032,2.71105,0
0.78488,6.42597,1.21457,3.41875,2.70595,0
0.78945,6.41552,1.22513,3.43708,2.70085,0
0.79401,6.40509,1.23571,3.45532,2.69575,0
0.79853,6.39469,1.24632,3.47345,2.69065,0
0.80304,6.38433,1.25695,3.49150,2.68555,0
0.80752,6.37400,1.26761,3.50945,2.68044,0
0.81198,6.36369,1.27830,3.52731,2.67534,0
0.81642,6.35342,1.28902,3.54508,2.67023,0
0.82083,6.34317,1.29976,3.56276,2.66511,0
0.82523,6.33296,1.31053,3.58035,2.66000,0
0.82960,6.32277,1.32132,3.59786,2.65488,0
0.83395,6.31262,1.33215,3.61529,2.64977,0
0.83828,6.30249,1.34300,3.63263,2.64465,0
0.84258,6.29238,1.35387,3.64988,2.63952,0
0.84687,6.28231,1.36478,3.66706,2.63440,0
0.85114,6.27226,1.37571,3.68415,2.62928,0
0.85539,6.26224,1.38667,3.70117,2.62415,0
0.85961,6.25225,1.39766,3.71811,2.61902,0
0.86382,6.24229,1.40867,3.73497,2.61391,0
0.86801,6.23235,1.41971,3.75176,2.60884,0
0.87219,6.22243,1.43078,3.76847,2.60382,0
0.87634,6.21254,1.44188,3.78511,2.59884,0
0.88047,6.20268,1.45300,3.80168,2.59392,0
0.88459,6.19284,1.46416,3.78511,2.58904,0
0.88872,6.18302,1.47534,3.76847,2.58416,0
0.89288,6.17323,1.48655,3.75176,2.57928,0
0.89705,6.16347,1.49778,3.73497,2.57441,0
0.90124,6.15372,1.50905,3.71811,2.56954,0
0.90545,6.14400,1.52034,3.70117,2.56467,0
0.90967,6.13431,1.53167,3.68415,2.55980,0
0.91392,6.12463,1.54301,3.66706,2.55494,0
0.91819,6.11498,1.55439,3.64988,2.55008,0
0.92248,6.10535,1.56580,3.63263,2.54523,0
0.92679,6.09574,1.57724,3.61529,2.54037,0
0.93112,6.08616,1.58870,3.59786,2.53552,0
0.93546,6.07659,1.60019,3.58035,2.53068,0
0.93984,6.06704,1.61171,3.56276,2.52584,0
0.94423,6.05752,1.62326,3.54508,2.52100,0
0.94864,6.04802,1.63484,3.52731,2.51616,0
0.95308,6.03853,1.64645,3.50945,2.51133,0
0.95754,6.02906,1.65809,3.49150,2.50650,0
0.96202,6.01962,1.66975,3.47345,2.50167,0
0.96653,6.01019,1.68145,3.45532,2.49685,0
0.97106,6.00078,1.69317,3.43708,2.49203,0
0.97561,5.99139,1.70493,3.41875,2.48722,0
0.98019,5.98202,1.71671,3.40032,2.48241,0
0.98479,5.97266,1.72852,3.38179,2.47760,0
0.98942,5.96332,1.74036,3.36316,2.47279,0
0.99407,5.95400,1.75223,3.34442,2.46799,0
0.99875,5.94470,1.76413,3.32558,2.46320,0
1.00345,5.93541,1.77606,3.30663,2.45841,0
1.00819,5.92613,1.78802,3.28757,2.45362,0
1.01295,5.91688,1.80001,3.26840,2.44884,0
1.01774,5.90763,1.81203,3.24912,2.44406,0
1.02255,5.89841,1.82408,3.22972,2.43928,0
1.02740,5.88920,1.83616,3.21021,2.43451,0
1.03227,5.88000,1.84827,3.19057,2.42975,0
1.03718,5.87081,1.86041,3.17082,2.42499,0
1.04211,5.86164,1.87258,3.15094,2.42023,0
1.04708,5.85249,1.88478,3.13093,2.41548,0
1.05208,5.84334,1.89701,3.11080,2.41073,0
1.05711,5.83421,1.90927,3.09053,2.40599,0
1.06217,5.82510,1.92156,3.07013,2.40126,0
1.06727,5.81599,1.93388,3.04959,2.39652,0
1.07240,5.80690,1.94623,3.02892,2.39180,0
1.07757,5.79781,1.95862,3.00810,2.38708,0
1.08277,5.78874,1.97103,2.98714,2.38236,0
1.08801,5.77968,1.98347,2.96603,2.37765,0
1.09329,5.77063,1.99595,2.94476,2.37295,0
1.09860,5.76159,2.00846,2.92335,2.36825,0
1.10395,5.75256,2.02099,2.90177,2.36356,0
1.10935,5.74354,2.03356,2.88004,2.35887,0
1.11478,5.73453,2.04616,2.85814,2.35419,0
1.12026,5.72553,2.05879,2.83606,2.34952,0
1.12578,5.71654,2.07145,2.81382,2.34485,0
1.13134,5.70755,2.08414,2.79140,2.34019,0
1.13694,5.69858,2.09687,2.76880,2.33554,0
1.14260,5.68961,2.10962,2.74601,2.33089,0
1.14829,5.68064,2.12241,2.72303,2.32625,0
1.15404,5.67169,2.13523,2.69985,2.32162,0
1.15984,5.66274,2.14808,2.67648,2.31700,0
1.16569,5.65380,2.16096,2.65290,2.31238,0
1.17158,5.64487,2.17387,2.62910,2.30777,0
1.17754,5.63594,2.18682,2.60509,2.30317,0
1.18354,5.62701,2.19979,2.58086,2.29858,0
1.18961,5.61810,2.21280,2.55639,2.29400,0
1.19573,5.60918,2.22584,2.53169,2.28943,0
1.20191,5.60027,2.23891,2.50675,2.28486,0
1.20815,5.59137,2.25202,2.48156,2.28030,0
1.21446,5.58247,2.26516,2.45610,2.27576,0
1.22083,5.57357,2.27833,2.43039,2.27122,0
1.22727,5.56468,2.29153,2.40439,2.26670,0
1.23378,5.55579,2.30476,2.37811,2.26218,0
1.24036,5.54690,2.31803,2.35154,2.25768,0
1.24702,5.53801,2.33133,2.32467,2.25319,0
1.25375,5.52913,2.34466,2.29748,2.24871,0
1.26056,5.52025,2.35802,2.26996,2.24424,0
1.26745,5.51137,2.37142,2.24211,2.23978,0
1.27443,5.50249,2.38485,2.21390,2.23534,0
1.28150,5.49361,2.39831,2.18533,2.23091,0
1.28866,5.48473,2.41181,2.15639,2.22650,0
1.29592,5.47585,2.42534,2.12705,2.22210,0
1.30328,5.46697,2.43890,2.09730,2.21771,0
1.31074,5.45809,2.45249,2.06712,2.21335,0
1.31831,5.44921,2.46612,2.03649,2.20899,0
1.32600,5.44033,2.47978,2.00540,2.20466,0
1.33380,5.43145,2.49348,1.97382,2.20034,0
1.34173,5.42257,2.50720,1.94172,2.19605,0
1.34979,5.41368,2.52096,1.90908,2.19177,0
1.35799,5.40479,2.53476,1.87588,2.18752,0
1.36633,5.39590,2.54859,1.84208,2.18328,0
1.37482,5.38701,2.56245,1.80764,2.17907,0
1.38348,5.37811,2.57634,1.77254,2.17489,0
1.39231,5.36921,2.59027,1.73673,2.17073,0
1.40132,5.36031,2.60424,1.70016,2.16660,0
1.41053,5.35140,2.61823,1.66279,2.16250,0
1.41994,5.34248,2.63227,1.62456,2.15843,0
1.42957,5.33356,2.64633,1.58541,2.15440,0
1.43944,5.32464,2.66043,1.54526,2.15040,0
1.44957,5.31571,2.67456,1.50405,2.14644,0
1.45997,5.30678,2.68873,1.46167,2.14252,0
1.47068,5.29783,2.70293,1.41803,2.13865,0
1.48172,5.28889,2.71717,1.37300,2.13483,0
1.49312,5.27993,2.73144,1.32645,2.13107,0
1.50491,5.27097,2.74574,1.27820,2.12737,0
1.51716,5.26200,2.76008,1.22805,2.12373,0
1.52990,5.25302,2.77446,1.17577,2.12018,0
1.54321,5.24404,2.78887,1.12105,2.11671,0
1.55717,5.23504,2.80331,1.06352,2.11334,0
1.57189,5.22604,2.81779,1.00270,2.11008,0
1.58749,5.21703,2.83230,0.93794,2.10697,0
1.60418,5.20801,2.84685,0.86836,2.10402,0
1.62220,5.19898,2.86143,0.79270,2.10127,0
1.64194,5.18994,2.87605,0.70902,2.09880,0
1.66401,5.18089,2.89070,0.61403,2.09668,0
1.68950,5.17183,2.90539,0.50135,2.09509,0
1.72072,5.16275,2.92012,0.35451,2.09440,0
1.80901,5.13547,2.96450,0.00000,2.09440,36896
1.80911,5.13547,2.96450,0.35451,2.09440,0
1.85319,5.14663,2.94487,0.50135,2.09586,0
1.88436,5.15756,2.92537,0.61403,2.09866,0
1.90981,5.16825,2.90600,0.70902,2.10203,0
1.93185,5.17871,2.88676,0.79270,2.10574,0
1.95156,5.18894,2.86764,0.86836,2.10967,0
1.96955,5.19893,2.84865,0.93794,2.11377,0
1.98622,5.20870,2.82979,1.00270,2.11800,0
2.00180,5.21823,2.81106,1.06352,2.12233,0
2.01649,5.22754,2.79245,1.12105,2.12675,0
2.03043,5.23662,2.77396,1.17577,2.13124,0
2.04372,5.24547,2.75561,1.22805,2.13580,0
2.05645,5.25410,2.73737,1.27820,2.14041,0
2.06867,5.26250,2.71926,1.32645,2.14507,0
2.08045,5.27068,2.70128,1.37300,2.14977,0
2.09184,5.27863,2.68342,1.41803,2.15451,0
2.10286,5.28636,2.66568,1.46167,2.15929,0
2.11355,5.29388,2.64806,1.50405,2.16409,0
2.12394,5.30117,2.63057,1.54526,2.16893,0
2.13405,5.30824,2.61320,1.58541,2.17380,0
2.14391,5.31509,2.59594,1.62456,2.17868,0
2.15353,5.32173,2.57881,1.66279,2.18360,0
2.16292,5.32815,2.56180,1.70016,2.18853,0
2.17211,5.33436,2.54491,1.73673,2.19348,0
2.18111,5.34035,2.52815,1.77254,2.19845,0
2.18993,5.34613,2.51149,1.80764,2.20344,0
2.19857,5.35169,2.49496,1.84208,2.20845,0
2.20706,5.35705,2.47855,1.87588,2.21347,0
2.21539,5.36219,2.46225,1.90908,2.21850,0
2.22357,5.36712,2.44608,1.94172,2.22355,0
2.23162,5.37185,2.43001,1.97382,2.22862,0
2.23954,5.37636,2.41407,2.00540,2.23369,0
2.24733,5.38067,2.39824,2.03649,2.23878,0
2.25500,5.38478,2.38253,2.06712,2.24388,0
2.26256,5.38868,2.36693,2.09730,2.24899,0
2.27001,5.39237,2.35145,2.12705,2.25411,0
2.27736,5.39586,2.33609,2.15639,2.25925,0
2.28461,5.39915,2.32083,2.18533,2.26439,0
2.29176,5.40224,2.30569,2.21390,2.26954,0
2.29882,5.40513,2.29067,2.24211,2.27470,0
2.30579,5.40782,2.27575,2.26996,2.27986,0
2.31267,5.41031,2.26095,2.29748,2.28504,0
2.31947,5.41260,2.24627,2.32467,2.29022,0
2.32619,5.41469,2.23169,2.35154,2.29541,0
2.33284,5.41659,2.21722,2.37811,2.30061,0
2.33941,5.41830,2.20287,2.40439,2.30582,0
2.34591,5.41981,2.18862,2.43039,2.31103,0
2.35234,5.42113,2.17449,2.45610,2.31625,0
2.35870,5.42226,2.16046,2.48156,2.32148,0
2.36500,5.42320,2.14655,2.50675,2.32671,0
2.37123,5.42394,2.13274,2.53169,2.33195,0
2.37741,5.42450,2.11904,2.55639,2.33719,0
2.38352,5.42487,2.10545,2.58086,2.34244,0
2.38957,5.42505,2.09197,2.60509,2.34770,0
2.39557,5.42505,2.07859,2.62910,2.35296,0
2.40152,5.42486,2.06532,2.65290,2.35823,0
2.40741,5.42449,2.05215,2.67648,2.36350,0
2.41324,5.42393,2.03909,2.69985,2.36878,0
2.41903,5.42319,2.02614,2.72303,2.37406,0
2.42477,5.42227,2.01329,2.74601,2.37935,0
2.43046,5.42117,2.00055,2.76880,2.38464,0
2.43611,5.41989,1.98791,2.79140,2.38993,0
2.44170,5.41843,1.97537,2.81382,2.39523,0
2.44726,5.41680,1.96294,2.83606,2.40054,0
2.45277,5.41499,1.95061,2.85814,2.40585,0
2.45823,5.41300,1.93838,2.88004,2.41116,0
2.46366,5.41083,1.92625,2.90177,2.41648,0
2.46905,5.40850,1.91423,2.92335,2.42180,0
2.47439,5.40599,1.90230,2.94476,2.42712,0
2.47970,5.40330,1.89048,2.96603,2.43245,0
2.48497,5.40045,1.87876,2.98714,2.43778,0
2.49020,5.39743,1.86713,3.00810,2.44312,0
2.49539,5.39423,1.85561,3.02892,2.44846,0
2.50055,5.39087,1.84418,3.04959,2.45380,0
2.50568,5.38734,1.83286,3.07013,2.45914,0
2.51077,5.38365,1.82163,3.09053,2.46449,0
2.51582,5.37979,1.81050,3.11080,2.46985,0
2.52085,5.37576,1.79946,3.13093,2.47520,0
2.52584,5.37158,1.78852,3.15094,2.48056,0
2.53080,5.36723,1.77768,3.17082,2.48592,0
2.53572,5.36271,1.76694,3.19057,2.49129,0
2.54062,5.35804,1.75629,3.21021,2.49665,0
2.54549,5.35321,1.74574,3.22972,2.50203,0
2.55033,5.34822,1.73528,3.24912,2.50740,0
2.55514,5.34307,1.72491,3.26840,2.51277,0
2.55992,5.33776,1.71464,3.28757,2.51815,0
2.56467,5.33230,1.70446,3.30663,2.52354,0
2.56940,5.32668,1.69438,3.32558,2.52892,0
2.57410,5.32091,1.68439,3.34442,2.53431,0
2.57877,5.31498,1.67448,3.36316,2.53970,0
2.58342,5.30891,1.66468,3.38179,2.54509,0
2.58804,5.30268,1.65496,3.40032,2.55048,0
2.59263,5.29630,1.64533,3.41875,2.55588,0
2.59720,5.28977,1.63580,3.43708,2.56128,0
2.60175,5.28310,1.62635,3.45532,2.56668,0
2.60627,5.27628,1.61700,3.47345,2.57209,0
2.61077,5.26930,1.60773,3.49150,2.57749,0
2.61525,5.26219,1.59855,3.50945,2.58290,0
2.61970,5.25493,1.58946,3.52731,2.58831,0
2.62413,5.24752,1.58046,3.54508,2.59372,0
2.62854,5.23998,1.57154,3.56276,2.59914,0
2.63292,5.23229,1.56272,3.58035,2.60456,0
2.63729,5.22446,1.55398,3.59786,2.60998,0
2.64163,5.21649,1.54532,3.61529,2.61540,0
2.64595,5.20838,1.53675,3.63263,2.62082,0
2.65026,5.20013,1.52827,3.64988,2.62625,0
2.65454,5.19175,1.51987,3.66706,2.63167,0
2.65880,5.18323,1.51156,3.68415,2.63710,0
2.66304,5.17458,1.50333,3.70117,2.64253,0
2.66726,5.16579,1.49518,3.71811,2.64797,0
2.67147,5.15686,1.48712,3.73497,2.65340,0
2.67565,5.14781,1.47914,3.75176,2.65884,0
2.67981,5.13862,1.47124,3.76847,2.66428,0
2.68396,5.12930,1.46343,3.78511,2.66972,0
2.68809,5.11986,1.45569,3.80168,2.67516,0
2.69220,5.11028,1.44804,3.81817,2.68060,0
2.69629,5.10058,1.44047,3.83459,2.68605,0
2.70037,5.09075,1.43297,3.85094,2.69150,0
2.70443,5.08079,1.42556,3.86723,2.69695,0
2.70847,5.07071,1.41823,3.88344,2.70240,0
2.71249,5.06051,1.41098,3.89959,2.70785,0
2.71650,5.05018,1.40380,3.91567,2.71330,0
2.72049,5.03973,1.39671,3.93168,2.71876,0
2.72446,5.02916,1.38969,3.94763,2.72422,0
2.72842,5.01847,1.38275,3.96352,2.72967,0
2.73236,5.00766,1.37588,3.97934,2.73513,0
2.73629,4.99673,1.36909,3.99510,2.74060,0
2.74020,4.98569,1.36238,4.01080,2.74606,0
2.74410,4.97453,1.35574,4.02644,2.75152,0
2.74798,4.96325,1.34918,4.04201,2.75699,0
2.75185,4.95186,1.34270,4.05753,2.76246,0
2.75570,4.94035,1.33628,4.07299,2.76793,0
2.75953,4.92874,1.32995,4.08839,2.77340,0
2.76336,4.91701,1.32368,4.10373,2.77887,0
2.76716,4.90517,1.31749,4.11901,2.78434,0
2.77096,4.89322,1.31137,4.13424,2.78982,0
2.77474,4.88116,1.30533,4.14941,2.79529,0
2.77850,4.86899,1.29935,4.16453,2.80077,0
2.78226,4.85672,1.29345,4.17959,2.80625,0
2.78600,4.84434,1.28762,4.19460,2.81173,0
2.78972,4.83185,1.28185,4.20955,2.81721,0
2.79343,4.81926,1.27616,4.22445,2.82269,0
2.79713,4.80657,1.27054,4.23930,2.82817,0
2.80082,4.79378,1.26499,4.25410,2.83366,0
2.80449,4.78088,1.25951,4.26884,2.83914,0
2.80815,4.76789,1.25409,4.28354,2.84463,0
2.81180,4.75479,1.24874,4.29818,2.85012,0
2.81544,4.74160,1.24346,4.31278,2.85561,0
2.81906,4.72831,1.23825,4.32732,2.86110,0
2.82267,4.71492,1.23311,4.34182,2.86659,0
2.82627,4.70144,1.22803,4.35627,2.87209,0
2.82986,4.68786,1.22301,4.37067,2.87758,0
2.83343,4.67419,1.21807,4.38502,2.88308,0
2.83700,4.66042,1.21318,4.39933,2.88857,0
2.84055,4.64657,1.20837,4.41359,2.89407,0
2.84409,4.63262,1.20361,4.42780,2.89957,0
2.84762,4.61858,1.19892,4.44197,2.90507,0
2.85114,4.60446,1.19430,4.45610,2.91057,0
2.85464,4.59024,1.18973,4.47018,2.91607,0
2.85814,4.57594,1.18523,4.48421,2.92158,0
2.86162,4.56155,1.18079,4.49820,2.92708,0
2.86510,4.54708,1.17641,4.51215,2.93259,0
2.86856,4.53252,1.17210,4.52606,2.93809,0
2.87201,4.51788,1.16784,4.53992,2.94360,0
2.87546,4.50316,1.16365,4.55374,2.94911,0
2.87889,4.48835,1.15951,4.56752,2.95462,0
2.88231,4.47347,1.15544,4.58125,2.96013,0
2.88572,4.45850,1.15142,4.59495,2.96564,0
2.88912,4.44346,1.14747,4.60860,2.97115,0
2.89251,4.42834,1.14357,4.62222,2.97667,0
2.89589,4.41314,1.13972,4.63579,2.98218,0
2.89926,4.39787,1.13594,4.64933,2.98770,0
2.90262,4.38252,1.13221,4.66282,2.99321,0
2.90597,4.36710,1.12854,4.67628,2.99873,0
2.90932,4.35160,1.12493,4.68970,3.00425,0
2.91265,4.33603,1.12137,4.70308,3.00977,0
2.91597,4.32040,1.11787,4.71642,3.01529,0
2.91928,4.30469,1.11442,4.72973,3.02081,0
2.92259,4.28891,1.11103,4.74299,3.02633,0
2.92588,4.27306,1.10769,4.75622,3.03185,0
2.92917,4.25715,1.10440,4.76942,3.03737,0
2.93245,4.24117,1.10117,4.76942,3.04290,0
2.93572,4.22512,1.09799,4.75622,3.04844,0
2.93901,4.20901,1.09486,4.74299,3.05401,0
2.94230,4.19284,1.09179,4.72973,3.05962,0
2.94561,4.17660,1.08877,4.71642,3.06525,0
2.94892,4.16031,1.08579,4.70308,3.07092,0
2.95224,4.14395,1.08287,4.68970,3.07662,0
2.95557,4.12753,1.08000,4.67628,3.08235,0
2.95892,4.11105,1.07718,4.66282,3.08809,0
2.96227,4.09452,1.07440,4.64933,3.09383,0
2.96563,4.07792,1.07168,4.63579,3.09957,0
2.96900,4.06128,1.06901,4.62222,3.10531,0
2.97238,4.04457,1.06638,4.60860,3.11105,0
2.97577,4.02782,1.06380,4.59495,3.11679,0
2.97917,4.01101,1.06127,4.58125,3.12253,0
2.98258,3.99414,1.05878,4.56752,3.12826,0
2.98600,3.97723,1.05635,4.55374,3.13400,0
2.98944,3.96026,1.05395,4.53992,3.13974,0
2.99288,3.94325,1.05161,4.52606,-3.13771,0
2.99633,3.92619,1.04931,4.51215,-3.13197,0
2.99979,3.90908,1.04705,4.49820,-3.12624,0
3.00327,3.89192,1.04484,4.48421,-3.12050,0
3.00675,3.87472,1.04267,4.47018,-3.11477,0
3.01025,3.85747,1.04054,4.45610,-3.10903,0
3.01375,3.84018,1.03846,4.44197,-3.10330,0
3.01727,3.82285,1.03642,4.42780,-3.09756,0
3.02080,3.80547,1.03442,4.41359,-3.09183,0
3.02434,3.78806,1.03247,4.39933,-3.08610,0
3.02789,3.77060,1.03056,4.38502,-3.08036,0
3.03146,3.75311,1.02868,4.37067,-3.07463,0
3.03503,3.73557,1.02685,4.35627,-3.06890,0
3.03862,3.71800,1.02506,4.34182,-3.06316,0
3.04222,3.70039,1.02331,4.32732,-3.05743,0
3.04583,3.68275,1.02159,4.31278,-3.05170,0
3.04945,3.66508,1.01992,4.29818,-3.04597,0
3.05309,3.64737,1.01828,4.28354,-3.04024,0
3.05674,3.62962,1.01668,4.26884,-3.03451,0
3.06040,3.61185,1.01512,4.25410,-3.02878,0
3.06407,3.59405,1.01360,4.23930,-3.02305,0
3.06776,3.57621,1.01211,4.22445,-3.01732,0
3.07146,3.55835,1.01066,4.20955,-3.01159,0
3.07517,3.54046,1.00925,4.19460,-3.00586,0
3.07890,3.52254,1.00787,4.17959,-3.00013,0
3.08263,3.50460,1.00653,4.16453,-2.99441,0
3.08639,3.48663,1.00522,4.14941,-2.98868,0
3.09015,3.46864,1.00394,4.13424,-2.98295,0
3.09393,3.45062,1.00270,4.11901,-2.97723,0
3.09773,3.43259,1.00149,4.10373,-2.97150,0
3.10153,3.41453,1.00032,4.08839,-2.96577,0
3.10536,3.39645,0.99917,4.07299,-2.96005,0
3.10919,3.37835,0.99806,4.05753,-2.95432,0
3.11304,3.36024,0.99698,4.04201,-2.94860,0
3.11691,3.34210,0.99594,4.02644,-2.94288,0
3.12079,3.32395,0.99492,4.01080,-2.93715,0
3.12469,3.30579,0.99393,3.99510,-2.93143,0
3.12860,3.28761,0.99298,3.97934,-2.92571,0
3.13253,3.26942,0.99205,3.96352,-2.91999,0
3.13647,3.25121,0.99115,3.94763,-2.91426,0
3.14043,3.23299,0.99028,3.93168,-2.90854,0
3.14440,3.21476,0.98944,3.91567,-2.90282,0
3.14839,3.19653,0.98863,3.89959,-2.89710,0
