time,x_pos,y_pos,velocity,rotation,action
0.00010,7.56503,0.34807,0.00000,-3.14159,16
0.00020,7.56503,0.34807,0.35460,-3.14159,0
0.04441,7.55732,0.34821,0.50147,3.14023,0
0.07567,7.54957,0.34864,0.61418,3.13762,0
0.10120,7.54178,0.34934,0.70919,3.13449,0
0.12331,7.53396,0.35033,0.79290,3.13104,0
0.14308,7.52610,0.35159,0.86858,3.12738,0
0.16113,7.51820,0.35312,0.93817,3.12357,0
0.17784,7.51027,0.35492,1.00295,3.11963,0
0.19347,7.50230,0.35700,1.06379,3.11560,0
0.20821,7.49429,0.35933,1.12133,3.11148,0
0.22219,7.48625,0.36194,1.17606,3.10730,0
0.23552,7.47817,0.36480,1.22836,3.10306,0
0.24828,7.47006,0.36792,1.27851,3.09877,0
0.26054,7.46191,0.37130,1.32678,3.09443,0
0.27236,7.45372,0.37493,1.37334,3.09006,0
0.28377,7.44550,0.37881,1.41838,3.08565,0
0.29483,7.43725,0.38294,1.46204,3.08120,0
0.30555,7.42896,0.38732,1.50442,3.07673,0
0.31597,7.42063,0.39194,1.54565,3.07223,0
0.32611,7.41228,0.39681,1.58580,3.06770,0
0.33600,7.40388,0.40191,1.62496,3.06315,0
0.34565,7.39546,0.40725,1.66320,3.05858,0
0.35507,7.38700,0.41282,1.70058,3.05399,0
0.36429,7.37850,0.41863,1.73716,3.04938,0
0.37332,7.36998,0.42467,1.77298,3.04475,0
0.38216,7.36141,0.43093,1.80809,3.04011,0
0.39083,7.35282,0.43741,1.84254,3.03545,0
0.39934,7.34419,0.44412,1.87635,3.03078,0
0.40769,7.33554,0.45105,1.90956,3.02609,0
0.41590,7.32684,0.45820,1.94220,3.02139,0
0.42398,7.31812,0.46556,1.97431,3.01668,0
0.43192,7.30936,0.47313,2.00590,3.01196,0
0.43973,7.30058,0.48092,2.03700,3.00722,0
0.44743,7.29176,0.48891,2.06763,3.00248,0
0.45501,7.28291,0.49710,2.09782,2.99772,0
0.46248,7.27402,0.50550,2.12758,2.99295,0
0.46985,7.26511,0.51410,2.15692,2.98818,0
0.47712,7.25617,0.52290,2.18588,2.98339,0
0.48429,7.24719,0.53189,2.21445,2.97860,0
0.49137,7.23819,0.54107,2.24266,2.97380,0
0.49836,7.22915,0.55045,2.27052,2.96899,0
0.50527,7.22008,0.56001,2.29804,2.96417,0
0.51209,7.21099,0.56976,2.32524,2.95935,0
0.51883,7.20186,0.57969,2.35212,2.95452,0
0.52550,7.19271,0.58981,2.37870,2.94968,0
0.53209,7.18352,0.60010,2.40499,2.94484,0
0.53861,7.17431,0.61057,2.43099,2.93998,0
0.54506,7.16506,0.62121,2.45671,2.93513,0
0.55144,7.15579,0.63202,2.48217,2.93026,0
0.55775,7.14649,0.64300,2.50737,2.92539,0
0.56401,7.13716,0.65415,2.53232,2.92052,0
0.57020,7.12780,0.66546,2.55703,2.91564,0
0.57633,7.11842,0.67693,2.58150,2.91075,0
0.58240,7.10900,0.68856,2.60574,2.90586,0
0.58842,7.09956,0.70035,2.62975,2.90096,0
0.59438,7.09009,0.71229,2.65355,2.89606,0
0.60029,7.08060,0.72438,2.67714,2.89115,0
0.60614,7.07107,0.73662,2.70052,2.88624,0
0.61195,7.06152,0.74901,2.72370,2.88133,0
0.61770,7.05195,0.76154,2.74669,2.87641,0
0.62341,7.04234,0.77421,2.76948,2.87148,0
0.62907,7.03271,0.78703,2.79209,2.86656,0
0.63469,7.02305,0.79998,2.81452,2.86162,0
0.64026,7.01337,0.81306,2.83677,2.85669,0
0.64578,7.00367,0.82628,2.85884,2.85175,0
0.65127,6.99393,0.83963,2.88075,2.84680,0
0.65671,6.98417,0.85310,2.90249,2.84185,0
0.66211,6.97439,0.86670,2.92407,2.83690,0
0.66747,6.96458,0.88042,2.94550,2.83195,0
0.67280,6.95474,0.89426,2.96676,2.82699,0
0.67808,6.94488,0.90822,2.98788,2.82203,0
0.68333,6.93500,0.92230,3.00885,2.81706,0
0.68854,6.92509,0.93648,3.02967,2.81209,0
0.69371,6.91516,0.95078,3.05035,2.80712,0
0.69885,6.90520,0.96518,3.07089,2.80215,0
0.70396,6.89522,0.97969,3.09130,2.79717,0
0.70903,6.88522,0.99430,3.11157,2.79219,0
0.71407,6.87519,1.00902,3.13171,2.78720,0
0.71907,6.86514,1.02383,3.15172,2.78221,0
0.72405,6.85507,1.03873,3.17160,2.77722,0
0.72899,6.84497,1.05373,3.19136,2.77223,0
0.73390,6.83486,1.06882,3.21100,2.76724,0
0.73879,6.82471,1.08400,3.23052,2.76224,0
0.74364,6.81455,1.09927,3.24993,2.75724,0
0.74846,6.80437,1.11461,3.26921,2.75223,0
0.75326,6.79416,1.13004,3.28839,2.74723,0
0.75802,6.78393,1.14555,3.30745,2.74222,0
0.76276,6.77368,1.16113,3.32641,2.73721,0
0.76748,6.76341,1.17679,3.34525,2.73220,0
0.77216,6.75312,1.19252,3.36399,2.72718,0
0.77682,6.74280,1.20831,3.38263,2.72216,0
0.78146,6.73247,1.22418,3.40117,2.71714,0
0.78607,6.72211,1.24010,3.41960,2.71212,0
0.79065,6.71174,1.25609,3.43794,2.70709,0
0.79521,6.70134,1.27214,3.45617,2.70207,0
0.79975,6.69093,1.28824,3.47432,2.69704,0
0.80426,6.68049,1.30440,3.49237,2.69201,0
0.80875,6.67004,1.32061,3.51032,2.68697,0
0.81322,6.65956,1.33687,3.52819,2.68194,0
0.81766,6.64907,1.35318,3.54596,2.67690,0
0.82208,6.63856,1.36953,3.56365,2.67186,0
0.82648,6.62803,1.38592,3.58124,2.66682,0
0.83086,6.61748,1.40236,3.59876,2.66178,0
0.83521,6.60691,1.41882,3.61618,2.65673,0
0.83955,6.59632,1.43533,3.63353,2.65168,0
0.84386,6.58572,1.45187,3.65079,2.64663,0
0.84816,6.57510,1.46843,3.66797,2.64158,0
0.85243,6.56446,1.48503,3.68507,2.63653,0
0.85669,6.55380,1.50165,3.70209,2.63148,0
0.86092,6.54312,1.51829,3.71903,2.62642,0
0.86514,6.53243,1.53495,3.73590,2.62136,0
0.86933,6.52172,1.55163,3.75269,2.61799,0
0.87351,6.51100,1.56832,3.76941,2.61797,0
0.87767,6.50025,1.58503,3.78605,2.61793,0
0.88181,6.48950,1.60175,3.80262,2.61786,0
0.88593,6.47872,1.61847,3.81912,2.61777,0
0.89004,6.46793,1.63520,3.81912,2.61765,0
0.89414,6.45712,1.65194,3.80262,2.61752,0
0.89827,6.44630,1.66867,3.78605,2.61735,0
0.90241,6.43546,1.68540,3.76941,2.61717,0
0.90657,6.42461,1.70213,3.75269,2.61696,0
0.91074,6.41374,1.71886,3.73590,2.61672,0
0.91494,6.40286,1.73557,3.71903,2.61646,0
0.91916,6.39196,1.75227,3.70209,2.61617,0
0.92339,6.38105,1.76896,3.68507,2.61586,0
0.92765,6.37012,1.78563,3.66797,2.61551,0
0.93192,6.35918,1.80228,3.65079,2.61515,0
0.93621,6.34823,1.81891,3.63353,2.61475,0
0.94053,6.33726,1.83552,3.61618,2.61433,0
0.94486,6.32628,1.85210,3.59876,2.61388,0
0.94922,6.31528,1.86865,3.58124,2.61340,0
0.95360,6.30428,1.88517,3.56365,2.61289,0
0.95800,6.29326,1.90166,3.54596,2.61235,0
0.96242,6.28222,1.91811,3.52819,2.61179,0
0.96686,6.27118,1.93453,3.51032,2.61119,0
0.97133,6.26012,1.95090,3.49237,2.61056,0
0.97582,6.24905,1.96723,3.47432,2.60990,0
0.98033,6.23796,1.98352,3.45617,2.60921,0
0.98486,6.22687,1.99975,3.43794,2.60849,0
0.98943,6.21576,2.01594,3.41960,2.60773,0
0.99401,6.20464,2.03207,3.40117,2.60694,0
0.99862,6.19351,2.04815,3.38263,2.60612,0
1.00325,6.18237,2.06417,3.36399,2.60526,0
1.00791,6.17122,2.08013,3.34525,2.60437,0
1.01260,6.16006,2.09602,3.32641,2.60344,0
1.01731,6.14889,2.11186,3.30745,2.60248,0
1.02205,6.13771,2.12762,3.28839,2.60148,0
1.02682,6.12651,2.14331,3.26921,2.60044,0
1.03162,6.11531,2.15894,3.24993,2.59937,0
1.03644,6.10410,2.17448,3.23052,2.59825,0
1.04129,6.09288,2.18995,3.21100,2.59710,0
1.04618,6.08164,2.20534,3.19136,2.59591,0
1.05109,6.07040,2.22065,3.17160,2.59467,0
1.05603,6.05915,2.23587,3.15172,2.59340,0
1.06101,6.04790,2.25101,3.13171,2.59208,0
1.06601,6.03663,2.26606,3.11157,2.59072,0
1.07105,6.02535,2.28101,3.09130,2.58931,0
1.07612,6.01407,2.29587,3.07089,2.58786,0
1.08123,6.00278,2.31064,3.05035,2.58637,0
1.08637,5.99148,2.32530,3.02967,2.58482,0
1.09154,5.98017,2.33987,3.00885,2.58323,0
1.09675,5.96886,2.35433,2.98788,2.58159,0
1.10200,5.95753,2.36868,2.96676,2.57990,0
1.10728,5.94621,2.38292,2.94550,2.57817,0
1.11260,5.93487,2.39706,2.92407,2.57637,0
1.11797,5.92353,2.41107,2.90249,2.57453,0
1.12337,5.91218,2.42498,2.88075,2.57263,0
1.12881,5.90082,2.43876,2.85884,2.57068,0
1.13429,5.88946,2.45242,2.83677,2.56867,0
1.13982,5.87809,2.46596,2.81452,2.56660,0
1.14539,5.86672,2.47938,2.79209,2.56447,0
1.15100,5.85534,2.49266,2.76948,2.56229,0
1.15667,5.84396,2.50582,2.74669,2.56004,0
1.16237,5.83257,2.51884,2.72370,2.55772,0
1.16813,5.82117,2.53172,2.70052,2.55534,0
1.17393,5.80977,2.54447,2.67714,2.55289,0
1.17979,5.79837,2.55708,2.65355,2.55038,0
1.18570,5.78696,2.56954,2.62975,2.54779,0
1.19166,5.77555,2.58186,2.60574,2.54513,0
1.19768,5.76413,2.59403,2.58150,2.54240,0
1.20375,5.75271,2.60605,2.55703,2.53959,0
1.20988,5.74128,2.61792,2.53232,2.53670,0
1.21607,5.72986,2.62963,2.50737,2.53373,0
1.22232,5.71843,2.64118,2.48217,2.53068,0
1.22864,5.70699,2.65258,2.45671,2.52754,0
1.23502,5.69555,2.66381,2.43099,2.52431,0
1.24147,5.68411,2.67488,2.40499,2.52099,0
1.24799,5.67267,2.68578,2.37870,2.51757,0
1.25458,5.66123,2.69651,2.35212,2.51406,0
1.26124,5.64978,2.70707,2.32524,2.51045,0
1.26799,5.63833,2.71745,2.29804,2.50673,0
1.27481,5.62688,2.72766,2.27052,2.50290,0
1.28171,5.61543,2.73769,2.24266,2.49896,0
1.28870,5.60397,2.74753,2.21445,2.49490,0
1.29578,5.59252,2.75719,2.18588,2.49073,0
1.30296,5.58106,2.76666,2.15692,2.48643,0
1.31022,5.56960,2.77595,2.12758,2.48199,0
1.31759,5.55815,2.78504,2.09782,2.47742,0
1.32507,5.54669,2.79394,2.06763,2.47271,0
1.33265,5.53523,2.80264,2.03700,2.46785,0
1.34034,5.52377,2.81115,2.00590,2.46284,0
1.34816,5.51231,2.81945,1.97431,2.45766,0
1.35610,5.50085,2.82755,1.94220,2.45232,0
1.36417,5.48940,2.83544,1.90956,2.44679,0
1.37238,5.47794,2.84312,1.87635,2.44108,0
1.38074,5.46648,2.85059,1.84254,2.43517,0
1.38925,5.45503,2.85785,1.80809,2.42905,0
1.39792,5.44357,2.86490,1.77298,2.42272,0
1.40676,5.43212,2.87172,1.73716,2.41615,0
1.41578,5.42067,2.87832,1.70058,2.40933,0
1.42500,5.40922,2.88470,1.66320,2.40225,0
1.43443,5.39777,2.89086,1.62496,2.39488,0
1.44408,5.38633,2.89678,1.58580,2.38722,0
1.45396,5.37488,2.90248,1.54565,2.37923,0
1.46411,5.36344,2.90794,1.50442,2.37089,0
1.47453,5.35201,2.91317,1.46204,2.36218,0
1.48525,5.34057,2.91816,1.41838,2.35306,0
1.49630,5.32914,2.92291,1.37334,2.34348,0
1.50772,5.31771,2.92741,1.32678,2.33342,0
1.51953,5.30629,2.93167,1.27851,2.32281,0
1.53180,5.29487,2.93569,1.22836,2.31160,0
1.54456,5.28345,2.93945,1.17606,2.29970,0
1.55789,5.27204,2.94296,1.12133,2.28704,0
1.57187,5.26063,2.94621,1.06379,2.27349,0
1.58661,5.24922,2.94921,1.00295,2.25891,0
1.60224,5.23783,2.95195,0.93817,2.24312,0
1.61895,5.22643,2.95443,0.86858,2.22587,0
1.63700,5.21504,2.95664,0.79290,2.20679,0
1.65677,5.20366,2.95858,0.70919,2.18538,0
1.67888,5.19228,2.96026,0.61418,2.16079,0
1.70440,5.18090,2.96166,0.50147,2.13156,0
1.73567,5.16954,2.96279,0.35460,2.09452,0
1.82409,5.13547,2.96450,0.00000,2.09440,36881
1.82419,5.13547,2.96450,0.35460,2.09440,0
1.86826,5.14663,2.94487,0.50147,2.09586,0
1.89942,5.15756,2.92537,0.61418,2.09866,0
1.92486,5.16825,2.90600,0.70919,2.10203,0
1.94690,5.17871,2.88676,0.79290,2.10573,0
1.96661,5.18894,2.86764,0.86858,2.10966,0
1.98460,5.19893,2.84865,0.93817,2.11376,0
2.00125,5.20870,2.82979,1.00295,2.11799,0
2.01683,5.21823,2.81106,1.06379,2.12232,0
2.03152,5.22754,2.79245,1.12133,2.12674,0
2.04546,5.23662,2.77396,1.17606,2.13124,0
2.05875,5.24547,2.75561,1.22836,2.13579,0
2.07147,5.25410,2.73737,1.27851,2.14040,0
2.08369,5.26250,2.71926,1.32678,2.14506,0
2.09547,5.27068,2.70128,1.37334,2.14976,0
2.10685,5.27863,2.68342,1.41838,2.15450,0
2.11787,5.28636,2.66568,1.46204,2.15928,0
2.12855,5.29388,2.64806,1.50442,2.16409,0
2.13894,5.30117,2.63057,1.54565,2.16892,0
2.14905,5.30824,2.61320,1.58580,2.17378,0
2.15891,5.31509,2.59594,1.62496,2.17867,0
2.16852,5.32173,2.57881,1.66320,2.18358,0
2.17792,5.32815,2.56180,1.70058,2.18852,0
2.18711,5.33436,2.54491,1.73716,2.19347,0
2.19610,5.34035,2.52815,1.77298,2.19844,0
2.20492,5.34613,2.51149,1.80809,2.20343,0
2.21356,5.35169,2.49496,1.84254,2.20843,0
2.22204,5.35705,2.47855,1.87635,2.21345,0
2.23037,5.36219,2.46225,1.90956,2.21849,0
2.23855,5.36712,2.44608,1.94220,2.22354,0
2.24660,5.37185,2.43001,1.97431,2.22860,0
2.25451,5.37636,2.41407,2.00590,2.23368,0
2.26230,5.38067,2.39824,2.03700,2.23876,0
2.26997,5.38478,2.38253,2.06763,2.24386,0
2.27753,5.38868,2.36693,2.09782,2.24897,0
2.28498,5.39237,2.35145,2.12758,2.25409,0
2.29233,5.39586,2.33609,2.15692,2.25922,0
2.29957,5.39915,2.32083,2.18588,2.26436,0
2.30672,5.40224,2.30569,2.21445,2.26951,0
2.31378,5.40513,2.29067,2.24266,2.27467,0
2.32074,5.40782,2.27575,2.27052,2.27984,0
2.32763,5.41031,2.26095,2.29804,2.28501,0
2.33443,5.41260,2.24627,2.32524,2.29020,0
2.34115,5.41469,2.23169,2.35212,2.29539,0
2.34779,5.41659,2.21722,2.37870,2.30058,0
2.35436,5.41830,2.20287,2.40499,2.30579,0
2.36086,5.41981,2.18862,2.43099,2.31100,0
2.36729,5.42113,2.17449,2.45671,2.31622,0
2.37365,5.42226,2.16046,2.48217,2.32145,0
2.37994,5.42320,2.14655,2.50737,2.32668,0
2.38618,5.42394,2.13274,2.53232,2.33192,0
2.39235,5.42450,2.11904,2.55703,2.33716,0
2.39846,5.42487,2.10545,2.58150,2.34241,0
2.40451,5.42505,2.09197,2.60574,2.34767,0
2.41051,5.42505,2.07859,2.62975,2.35293,0
2.41645,5.42486,2.06532,2.65355,2.35819,0
2.42234,5.42449,2.05215,2.67714,2.36346,0
2.42818,5.42393,2.03909,2.70052,2.36874,0
2.43396,5.42319,2.02614,2.72370,2.37402,0
2.43970,5.42227,2.01329,2.74669,2.37931,0
2.44539,5.42117,2.00055,2.76948,2.38460,0
2.45103,5.41989,1.98791,2.79209,2.38989,0
2.45663,5.41843,1.97537,2.81452,2.39519,0
2.46218,5.41680,1.96294,2.83677,2.40050,0
2.46769,5.41499,1.95061,2.85884,2.40580,0
2.47316,5.41300,1.93838,2.88075,2.41112,0
2.47858,5.41083,1.92625,2.90249,2.41643,0
2.48396,5.40850,1.91423,2.92407,2.42175,0
2.48931,5.40599,1.90230,2.94550,2.42707,0
2.49461,5.40330,1.89048,2.96676,2.43240,0
2.49988,5.40045,1.87876,2.98788,2.43773,0
2.50511,5.39743,1.86713,3.00885,2.44307,0
2.51030,5.39423,1.85561,3.02967,2.44841,0
2.51546,5.39087,1.84418,3.05035,2.45375,0
2.52059,5.38734,1.83286,3.07089,2.45909,0
2.52567,5.38365,1.82163,3.09130,2.46444,0
2.53073,5.37979,1.81050,3.11157,2.46979,0
2.53575,5.37576,1.79946,3.13171,2.47515,0
2.54074,5.37158,1.78852,3.15172,2.48051,0
2.54570,5.36723,1.77768,3.17160,2.48587,0
2.55063,5.36271,1.76694,3.19136,2.49123,0
2.55552,5.35804,1.75629,3.21100,2.49660,0
2.56039,5.35321,1.74574,3.23052,2.50197,0
2.56523,5.34822,1.73528,3.24993,2.50734,0
2.57003,5.34307,1.72491,3.26921,2.51272,0
2.57481,5.33776,1.71464,3.28839,2.51810,0
2.57957,5.33230,1.70446,3.30745,2.52348,0
2.58429,5.32668,1.69438,3.32641,2.52886,0
2.58899,5.32091,1.68439,3.34525,2.53425,0
2.59366,5.31498,1.67448,3.36399,2.53964,0
2.59831,5.30891,1.66468,3.38263,2.54503,0
2.60293,5.30268,1.65496,3.40117,2.55042,0
2.60752,5.29630,1.64533,3.41960,2.55582,0
2.61209,5.28977,1.63580,3.43794,2.56122,0
2.61664,5.28310,1.62635,3.45617,2.56662,0
2.62116,5.27628,1.61700,3.47432,2.57202,0
2.62565,5.26930,1.60773,3.49237,2.57743,0
2.63013,5.26219,1.59855,3.51032,2.58283,0
2.63458,5.25493,1.58946,3.52819,2.58824,0
2.63901,5.24752,1.58046,3.54596,2.59366,0
2.64342,5.23998,1.57154,3.56365,2.59907,0
2.64780,5.23229,1.56272,3.58124,2.60449,0
2.65217,5.22446,1.55398,3.59876,2.60991,0
2.65651,5.21649,1.54532,3.61618,2.61533,0
2.66083,5.20838,1.53675,3.63353,2.62075,0
2.66513,5.20013,1.52827,3.65079,2.62617,0
2.66941,5.19175,1.51987,3.66797,2.63160,0
2.67367,5.18323,1.51156,3.68507,2.63703,0
2.67791,5.17458,1.50333,3.70209,2.64246,0
2.68213,5.16579,1.49518,3.71903,2.64789,0
2.68633,5.15686,1.48712,3.73590,2.65333,0
2.69052,5.14781,1.47914,3.75269,2.65876,0
2.69468,5.13862,1.47124,3.76941,2.66420,0
2.69883,5.12930,1.46343,3.78605,2.66964,0
2.70295,5.11986,1.45569,3.80262,2.67508,0
2.70706,5.11028,1.44804,3.81912,2.68052,0
2.71115,5.10058,1.44047,3.83554,2.68597,0
2.71523,5.09075,1.43297,3.85190,2.69142,0
2.71929,5.08079,1.42556,3.86819,2.69686,0
2.72333,5.07071,1.41823,3.88440,2.70231,0
2.72735,5.06051,1.41098,3.90056,2.70776,0
2.73136,5.05018,1.40380,3.91664,2.71322,0
2.73535,5.03973,1.39671,3.93266,2.71867,0
2.73932,5.02916,1.38969,3.94861,2.72413,0
2.74328,5.01847,1.38275,3.96450,2.72959,0
2.74722,5.00766,1.37588,3.98033,2.73505,0
2.75114,4.99673,1.36909,3.99609,2.74051,0
2.75505,4.98569,1.36238,4.01180,2.74597,0
2.75895,4.97453,1.35574,4.02744,2.75143,0
2.76283,4.96325,1.34918,4.04302,2.75690,0
2.76669,4.95186,1.34270,4.05854,2.76237,0
2.77055,4.94035,1.33628,4.07400,2.76783,0
2.77438,4.92874,1.32995,4.08940,2.77330,0
2.77820,4.91701,1.32368,4.10475,2.77877,0
2.78201,4.90517,1.31749,4.12003,2.78425,0
2.78580,4.89322,1.31137,4.13527,2.78972,0
2.78958,4.88116,1.30533,4.15044,2.79520,0
2.79335,4.86899,1.29935,4.16556,2.80067,0
2.79710,4.85672,1.29345,4.18063,2.80615,0
2.80084,4.84434,1.28762,4.19564,2.81163,0
2.80456,4.83185,1.28185,4.21060,2.81711,0
2.80827,4.81926,1.27616,4.22550,2.82259,0
2.81197,4.80657,1.27054,4.24035,2.82807,0
2.81565,4.79378,1.26499,4.25515,2.83356,0
2.81933,4.78088,1.25951,4.26990,2.83904,0
2.82299,4.76789,1.25409,4.28460,2.84453,0
2.82663,4.75479,1.24874,4.29925,2.85002,0
2.83027,4.74160,1.24346,4.31385,2.85551,0
2.83389,4.72831,1.23825,4.32840,2.86100,0
2.83750,4.71492,1.23311,4.34290,2.86649,0
2.84110,4.70144,1.22803,4.35735,2.87198,0
2.84469,4.68786,1.22301,4.37175,2.87747,0
2.84826,4.67419,1.21807,4.38611,2.88297,0
2.85182,4.66042,1.21318,4.40042,2.88846,0
2.85537,4.64657,1.20837,4.41469,2.89396,0
2.85891,4.63262,1.20361,4.42890,2.89946,0
2.86244,4.61858,1.19892,4.44308,2.90496,0
2.86596,4.60446,1.19430,4.45720,2.91046,0
2.86947,4.59024,1.18973,4.47129,2.91596,0
2.87296,4.57594,1.18523,4.48532,2.92146,0
2.87644,4.56155,1.18079,4.49932,2.92697,0
2.87992,4.54708,1.17641,4.51327,2.93247,0
2.88338,4.53252,1.17210,4.52718,2.93798,0
2.88683,4.51788,1.16784,4.54105,2.94348,0
2.89027,4.50316,1.16365,4.55487,2.94899,0
2.89370,4.48835,1.15951,4.56865,2.95450,0
2.89712,4.47347,1.15544,4.58239,2.96001,0
2.90053,4.45850,1.15142,4.59609,2.96552,0
2.90393,4.44346,1.14747,4.60975,2.97103,0
2.90732,4.42834,1.14357,4.62337,2.97655,0
2.91070,4.41314,1.13972,4.63694,2.98206,0
2.91407,4.39787,1.13594,4.65048,2.98757,0
2.91743,4.38252,1.13221,4.66398,2.99309,0
2.92079,4.36710,1.12854,4.67744,2.99861,0
2.92413,4.35160,1.12493,4.69086,3.00412,0
2.92746,4.33603,1.12137,4.70425,3.00964,0
2.93078,4.32040,1.11787,4.71759,3.01516,0
2.93409,4.30469,1.11442,4.73090,3.02068,0
2.93740,4.28891,1.11103,4.74417,3.02620,0
2.94069,4.27306,1.10769,4.75740,3.03172,0
2.94397,4.25715,1.10440,4.77060,3.03725,0
2.94725,4.24117,1.10117,4.77060,3.04277,0
2.95053,4.22512,1.09799,4.75740,3.04831,0
2.95381,4.20901,1.09486,4.74417,3.05388,0
2.95710,4.19284,1.09179,4.73090,3.05948,0
2.96041,4.17660,1.08877,4.71759,3.06512,0
2.96372,4.16031,1.08579,4.70425,3.07079,0
2.96704,4.14395,1.08287,4.69086,3.07649,0
2.97037,4.12753,1.08000,4.67744,3.08051,0
2.97371,4.11105,1.07718,4.66398,3.08052,0
2.97706,4.09452,1.07440,4.65048,3.08055,0
2.98042,4.07792,1.07168,4.63694,3.08060,0
2.98379,4.06128,1.06901,4.62337,3.08066,0
2.98717,4.04457,1.06638,4.60975,3.08074,0
2.99056,4.02782,1.06380,4.59609,3.08084,0
2.99396,4.01101,1.06127,4.58239,3.08096,0
2.99737,3.99414,1.05878,4.56865,3.08110,0
3.00079,3.97723,1.05635,4.55487,3.08125,0
3.00423,3.96026,1.05395,4.54105,3.08142,0
3.00767,3.94325,1.05161,4.52718,3.08161,0
3.01112,3.92619,1.04931,4.51327,3.08182,0
3.01458,3.90908,1.04705,4.49932,3.08204,0
3.01805,3.89192,1.04484,4.48532,3.08229,0
3.02154,3.87472,1.04267,4.47129,3.08255,0
3.02503,3.85747,1.04054,4.45720,3.08283,0
3.02854,3.84018,1.03846,4.44308,3.08314,0
3.03206,3.82285,1.03642,4.42890,3.08346,0
3.03558,3.80547,1.03442,4.41469,3.08380,0
3.03912,3.78806,1.03247,4.40042,3.08416,0
3.04268,3.77060,1.03056,4.38611,3.08455,0
3.04624,3.75311,1.02868,4.37175,3.08495,0
3.04981,3.73557,1.02685,4.35735,3.08537,0
3.05340,3.71800,1.02506,4.34290,3.08581,0
3.05700,3.70039,1.02331,4.32840,3.08628,0
3.06061,3.68275,1.02159,4.31385,3.08676,0
3.06423,3.66508,1.01992,4.29925,3.08727,0
3.06786,3.64737,1.01828,4.28460,3.08780,0
3.07151,3.62962,1.01668,4.26990,3.08835,0
3.07517,3.61185,1.01512,4.25515,3.08892,0
3.07884,3.59405,1.01360,4.24035,3.08951,0
3.08253,3.57621,1.01211,4.22550,3.09013,0
3.08623,3.55835,1.01066,4.21060,3.09077,0
3.08994,3.54046,1.00925,4.19564,3.09143,0
3.09366,3.52254,1.00787,4.18063,3.09212,0
3.09740,3.50460,1.00653,4.16556,3.09283,0
3.10115,3.48663,1.00522,4.15044,3.09356,0
3.10492,3.46864,1.00394,4.13527,3.09432,0
3.10870,3.45062,1.00270,4.12003,3.09510,0
3.11249,3.43259,1.00149,4.10475,3.09590,0
3.11630,3.41453,1.00032,4.08940,3.09673,0
3.12012,3.39645,0.99917,4.07400,3.09759,0
3.12395,3.37835,0.99806,4.05854,3.09847,0
3.12780,3.36024,0.99698,4.04302,3.09938,0
3.13167,3.34210,0.99594,4.02744,3.10031,0
3.13555,3.32395,0.99492,4.01180,3.10127,0
3.13944,3.30579,0.99393,3.99609,3.10225,0
3.14335,3.28761,0.99298,3.98033,3.10326,0
3.14728,3.26942,0.99205,3.96450,3.10430,0
3.15122,3.25121,0.99115,3.94861,3.10537,0
3.15518,3.23299,0.99028,3.93266,3.10646,0
3.15915,3.21476,0.98944,3.91664,3.10758,0
