time,x_pos,y_pos,velocity,rotation,action
0.00010,7.57149,0.35798,0.00000,-3.14159,0
0.00020,7.57149,0.35798,0.21765,-3.14159,0
0.07221,7.55859,0.35813,0.30780,3.14051,0
0.12313,7.54563,0.35857,0.37698,3.13845,0
0.16471,7.53262,0.35929,0.43530,3.13596,0
0.20071,7.51956,0.36031,0.48668,3.13323,0
0.23292,7.50644,0.36160,0.53313,3.13032,0
0.26232,7.49328,0.36318,0.57585,3.12730,0
0.28954,7.48007,0.36504,0.61561,3.12418,0
0.31500,7.46681,0.36717,0.65295,3.12098,0
0.33900,7.45350,0.36958,0.68827,3.11772,0
0.36177,7.44015,0.37226,0.72186,3.11440,0
0.38349,7.42675,0.37520,0.75396,3.11104,0
0.40427,7.41331,0.37841,0.78475,3.10763,0
0.42425,7.39982,0.38189,0.81437,3.10420,0
0.44349,7.38629,0.38562,0.84296,3.10072,0
0.46209,7.37272,0.38962,0.87060,3.09723,0
0.48009,7.35911,0.39386,0.89739,3.09370,0
0.49755,7.34546,0.39837,0.92341,3.09015,0
0.51453,7.33178,0.40312,0.94871,3.08658,0
0.53105,7.31805,0.40812,0.97336,3.08299,0
0.54715,7.30429,0.41337,0.99740,3.07938,0
0.56286,7.29050,0.41885,1.02087,3.07576,0
0.57822,7.27666,0.42458,1.04381,3.07212,0
0.59323,7.26280,0.43055,1.06626,3.06846,0
0.60793,7.24890,0.43675,1.08825,3.06479,0
0.62234,7.23498,0.44319,1.10980,3.06111,0
0.63646,7.22102,0.44985,1.13094,3.05741,0
0.65032,7.20703,0.45674,1.15170,3.05371,0
0.66393,7.19301,0.46386,1.17208,3.04999,0
0.67730,7.17897,0.47120,1.19212,3.04626,0
0.69045,7.16490,0.47875,1.21182,3.04252,0
0.70338,7.15080,0.48653,1.23122,3.03878,0
0.71611,7.13668,0.49452,1.25030,3.03502,0
0.72864,7.12253,0.50272,1.26911,3.03126,0
0.74099,7.10837,0.51113,1.28764,3.02748,0
0.75317,7.09418,0.51975,1.30590,3.02370,0
0.76517,7.07997,0.52858,1.32391,3.01992,0
0.77701,7.06574,0.53760,1.34169,3.01612,0
0.78869,7.05149,0.54682,1.35922,3.01232,0
0.80022,7.03722,0.55624,1.37654,3.00851,0
0.81161,7.02294,0.56586,1.39364,3.00470,0
0.82285,7.00864,0.57567,1.41053,3.00088,0
0.83397,6.99433,0.58566,1.42723,2.99705,0
0.84495,6.98000,0.59584,1.44373,2.99322,0
0.85580,6.96566,0.60621,1.46004,2.98938,0
0.86654,6.95131,0.61676,1.47618,2.98554,0
0.87716,6.93694,0.62748,1.49213,2.98169,0
0.88766,6.92257,0.63839,1.50792,2.97784,0
0.89805,6.90819,0.64946,1.52355,2.97398,0
0.90834,6.89380,0.66071,1.53902,2.97011,0
0.91853,6.87940,0.67212,1.55433,2.96625,0
0.92861,6.86500,0.68371,1.56950,2.96238,0
0.93860,6.85059,0.69545,1.58452,2.95850,0
0.94849,6.83618,0.70736,1.59940,2.95462,0
0.95829,6.82176,0.71942,1.61414,2.95074,0
0.96800,6.80734,0.73164,1.62874,2.94685,0
0.97762,6.79292,0.74401,1.64322,2.94296,0
0.98716,6.77850,0.75654,1.65757,2.93906,0
0.99661,6.76409,0.76921,1.67180,2.93516,0
1.00599,6.74967,0.78203,1.68591,2.93126,0
1.01529,6.73526,0.79499,1.69990,2.92735,0
1.02451,6.72085,0.80809,1.71378,2.92345,0
1.03365,6.70644,0.82132,1.72754,2.91953,0
1.04272,6.69204,0.83470,1.74120,2.91562,0
1.05173,6.67765,0.84820,1.75475,2.91170,0
1.06066,6.66326,0.86184,1.76820,2.90778,0
1.06952,6.64889,0.87560,1.78154,2.90385,0
1.07832,6.63452,0.88949,1.79479,2.89992,0
1.08705,6.62016,0.90350,1.80794,2.89599,0
1.09572,6.60582,0.91764,1.82099,2.89206,0
1.10433,6.59148,0.93188,1.83395,2.88812,0
1.11287,6.57717,0.94625,1.84682,2.88419,0
1.12136,6.56286,0.96072,1.85960,2.88024,0
1.12979,6.54857,0.97531,1.87230,2.87630,0
1.13816,6.53430,0.99000,1.88491,2.87235,0
1.14648,6.52004,1.00480,1.89743,2.86841,0
1.15474,6.50581,1.01970,1.90987,2.86445,0
1.16294,6.49159,1.03469,1.92223,2.86050,0
1.17110,6.47739,1.04979,1.93452,2.85655,0
1.17920,6.46322,1.06498,1.94672,2.85259,0
1.18725,6.44906,1.08026,1.95885,2.84863,0
1.19525,6.43494,1.09563,1.97091,2.84466,0
1.20320,6.42083,1.11109,1.98289,2.84070,0
1.21111,6.40675,1.12663,1.99480,2.83673,0
1.21896,6.39269,1.14225,2.00000,2.83276,0
1.22680,6.37867,1.15795,2.00000,2.82878,0
1.23464,6.36467,1.17373,2.00000,2.82477,0
1.24247,6.35070,1.18958,2.00000,2.82074,0
1.25031,6.33676,1.20550,2.00000,2.81668,0
1.25815,6.32285,1.22150,2.00000,2.81259,0
1.26598,6.30897,1.23755,2.00000,2.80848,0
1.27382,6.29513,1.25367,2.00000,2.80434,0
1.28166,6.28132,1.26986,2.00000,2.80018,0
1.28949,6.26755,1.28610,2.00000,2.79599,0
1.29733,6.25381,1.30239,2.00000,2.79178,0
1.30517,6.24011,1.31874,2.00000,2.78754,0
1.31300,6.22644,1.33514,2.00000,2.78327,0
1.32084,6.21282,1.35159,2.00000,2.77898,0
1.32868,6.19923,1.36809,2.00000,2.77467,0
1.33652,6.18569,1.38463,2.00000,2.77032,0
1.34435,6.17219,1.40120,2.00000,2.76596,0
1.35219,6.15873,1.41782,2.00000,2.76156,0
1.36003,6.14532,1.43447,2.00000,2.75715,0
1.36786,6.13195,1.45116,2.00000,2.75270,0
1.37570,6.11862,1.46787,2.00000,2.74823,0
1.38354,6.10534,1.48461,2.00000,2.74374,0
1.39137,6.09211,1.50138,2.00000,2.73922,0
1.39921,6.07893,1.51817,2.00000,2.73467,0
1.40705,6.06580,1.53498,2.00000,2.73010,0
1.41488,6.05272,1.55181,2.00000,2.72550,0
1.42272,6.03969,1.56865,2.00000,2.72088,0
1.43056,6.02671,1.58551,2.00000,2.71623,0
1.43839,6.01379,1.60237,2.00000,2.71156,0
1.44623,6.00092,1.61924,2.00000,2.70686,0
1.45407,5.98811,1.63612,2.00000,2.70214,0
1.46190,5.97536,1.65300,2.00000,2.69739,0
1.46974,5.96266,1.66988,2.00000,2.69261,0
1.47758,5.95002,1.68675,2.00000,2.68781,0
1.48541,5.93744,1.70362,2.00000,2.68298,0
1.49325,5.92492,1.72048,2.00000,2.67813,0
1.50109,5.91246,1.73734,2.00000,2.67325,0
1.50892,5.90006,1.75417,2.00000,2.66835,0
1.51676,5.88773,1.77100,2.00000,2.66342,0
1.52460,5.87546,1.78780,2.00000,2.65847,0
1.53243,5.86325,1.80458,2.00000,2.65349,0
1.54027,5.85112,1.82134,2.00000,2.64848,0
1.54811,5.83905,1.83808,2.00000,2.64345,0
1.55594,5.82705,1.85478,2.00000,2.63840,0
1.56378,5.81511,1.87145,2.00000,2.63331,0
1.57162,5.80325,1.88809,2.00000,2.62821,0
1.57945,5.79146,1.90470,2.00000,2.62307,0
1.58729,5.77974,1.92126,2.00000,2.61799,0
1.59513,5.76810,1.93779,2.00000,2.61798,0
1.60296,5.75653,1.95426,2.00000,2.61794,0
1.61080,5.74503,1.97070,2.00000,2.61788,0
1.61864,5.73361,1.98708,2.00000,2.61779,0
1.62647,5.72227,2.00341,2.00000,2.61767,0
1.63431,5.71100,2.01969,2.00000,2.61753,0
1.64215,5.69982,2.03591,2.00000,2.61737,0
1.64998,5.68871,2.05207,2.00000,2.61717,0
1.65782,5.67769,2.06818,2.00000,2.61696,0
1.66566,5.66674,2.08421,2.00000,2.61671,0
1.67349,5.65588,2.10018,2.00000,2.61644,0
1.68133,5.64511,2.11608,2.00000,2.61615,0
1.68917,5.63442,2.13191,2.00000,2.61583,0
1.69700,5.62381,2.14766,1.98913,2.61549,0
1.70488,5.61329,2.16333,1.97719,2.61511,0
1.71281,5.60286,2.17893,1.96517,2.61471,0
1.72079,5.59252,2.19444,1.95308,2.61428,0
1.72881,5.58227,2.20987,1.94092,2.61382,0
1.73689,5.57211,2.22521,1.92867,2.61333,0
1.74501,5.56204,2.24046,1.91635,2.61281,0
1.75319,5.55206,2.25562,1.90395,2.61226,0
1.76142,5.54218,2.27068,1.89147,2.61168,0
1.76971,5.53239,2.28565,1.87891,2.61107,0
1.77805,5.52270,2.30051,1.86626,2.61042,0
1.78645,5.51310,2.31527,1.85353,2.60974,0
1.79491,5.50360,2.32993,1.84070,2.60902,0
1.80342,5.49420,2.34448,1.82779,2.60827,0
1.81200,5.48490,2.35892,1.81478,2.60749,0
1.82063,5.47571,2.37324,1.80169,2.60666,0
1.82933,5.46661,2.38745,1.78849,2.60580,0
1.83810,5.45761,2.40154,1.77520,2.60491,0
1.84693,5.44872,2.41551,1.76181,2.60397,0
1.85582,5.43993,2.42936,1.74831,2.60299,0
1.86479,5.43125,2.44308,1.73471,2.60197,0
1.87382,5.42267,2.45667,1.72100,2.60091,0
1.88293,5.41421,2.47013,1.70718,2.59981,0
1.89211,5.40585,2.48346,1.69325,2.59866,0
1.90137,5.39760,2.49665,1.67920,2.59747,0
1.91070,5.38945,2.50971,1.66504,2.59624,0
1.92011,5.38143,2.52262,1.65075,2.59495,0
1.92961,5.37351,2.53539,1.63634,2.59362,0
1.93919,5.36571,2.54801,1.62180,2.59223,0
1.94885,5.35802,2.56048,1.60713,2.59080,0
1.95860,5.35044,2.57281,1.59232,2.58931,0
1.96845,5.34299,2.58497,1.57738,2.58777,0
1.97838,5.33564,2.59698,1.56229,2.58618,0
1.98841,5.32842,2.60884,1.54706,2.58453,0
1.99855,5.32132,2.62053,1.53167,2.58282,0
2.00878,5.31434,2.63205,1.51613,2.58104,0
2.01912,5.30747,2.64341,1.50042,2.57921,0
2.02956,5.30073,2.65460,1.48455,2.57731,0
2.04012,5.29412,2.66562,1.46851,2.57535,0
2.05079,5.28762,2.67646,1.45229,2.57331,0
2.06159,5.28126,2.68713,1.43589,2.57121,0
2.07250,5.27501,2.69761,1.41930,2.56903,0
2.08354,5.26890,2.70792,1.40251,2.56678,0
2.09472,5.26291,2.71804,1.38552,2.56444,0
2.10603,5.25705,2.72797,1.36832,2.56203,0
2.11749,5.25133,2.73771,1.35090,2.55953,0
2.12909,5.24573,2.74726,1.33325,2.55695,0
2.14084,5.24026,2.75662,1.31536,2.55427,0
2.15276,5.23493,2.76577,1.29723,2.55150,0
2.16484,5.22973,2.77473,1.27884,2.54862,0
2.17710,5.22467,2.78348,1.26019,2.54565,0
2.18954,5.21974,2.79203,1.24125,2.54257,0
2.20216,5.21495,2.80038,1.22202,2.53937,0
2.21499,5.21029,2.80851,1.20248,2.53606,0
2.22802,5.20578,2.81642,1.18262,2.53262,0
2.24128,5.20140,2.82413,1.16242,2.52905,0
2.25476,5.19717,2.83161,1.14186,2.52535,0
2.26849,5.19308,2.83888,1.12092,2.52150,0
2.28247,5.18913,2.84592,1.09959,2.51750,0
2.29672,5.18532,2.85273,1.07783,2.51334,0
2.31126,5.18166,2.85932,1.05563,2.50900,0
2.32611,5.17814,2.86567,1.03295,2.50449,0
2.34128,5.17477,2.87180,1.00976,2.49978,0
2.35681,5.17155,2.87768,0.98602,2.49486,0
2.37270,5.16847,2.88333,0.96170,2.48972,0
2.38900,5.16555,2.88874,0.93675,2.48434,0
2.40573,5.16277,2.89390,0.91111,2.47871,0
2.42293,5.16015,2.89882,0.88473,2.47279,0
2.44065,5.15768,2.90349,0.85754,2.46657,0
2.45893,5.15536,2.90790,0.82946,2.46002,0
2.47782,5.15320,2.91207,0.80040,2.45309,0
2.49741,5.15119,2.91597,0.77024,2.44576,0
2.51775,5.14934,2.91962,0.73885,2.43798,0
2.53897,5.14764,2.92301,0.70606,2.42967,0
2.56117,5.14611,2.92613,0.67168,2.42079,0
2.58450,5.14473,2.92899,0.63544,2.41123,0
2.60917,5.14352,2.93157,0.59700,2.40087,0
2.63542,5.14246,2.93389,0.55591,2.38957,0
2.66361,5.14157,2.93593,0.51153,2.37712,0
2.69425,5.14084,2.93769,0.46292,2.36321,0
2.72811,5.14027,2.93917,0.40856,2.34739,0
2.76648,5.13987,2.94038,0.34576,2.32889,0
2.81181,5.13964,2.94129,0.26866,2.30623,0
2.87015,5.13957,2.94192,0.15750,2.27582,0
2.96966,5.13967,2.94226,0.07665,2.22068,0
3.17414,5.13994,2.94231,0.21765,2.09446,0
3.31817,5.14177,2.94067,0.00000,2.09440,4112
3.31827,5.14177,2.94067,0.21765,2.09440,0
3.39290,5.16593,2.91311,0.30780,2.09440,0
3.44568,5.18090,2.89625,0.37698,2.09440,0
3.48877,5.18798,2.88862,0.34719,2.09440,0
3.53556,5.18843,2.88873,0.29096,2.09440,0
3.59139,5.18353,2.89507,0.36336,2.09440,0
3.63609,5.17456,2.90616,0.42356,2.09440,0
3.67444,5.16279,2.92052,0.47621,2.09440,0
3.70856,5.14951,2.93664,0.52359,2.09440,0
3.73958,5.13598,2.95304,0.48668,2.09440,0
3.77296,5.12349,2.96822,0.43530,2.09440,0
3.81028,5.11331,2.98070,0.37698,2.09440,0
3.85337,5.10672,2.98898,0.30780,2.09440,0
3.90614,5.10500,2.99158,0.21765,2.09440,0
4.05541,5.14177,2.95034,0.00000,2.09440,82944
4.05551,5.14177,2.95034,0.21765,2.09440,0
4.12735,5.14739,2.94394,0.30780,2.09834,0
4.17815,5.15302,2.93760,0.37698,2.10588,0
4.21962,5.15867,2.93131,0.43530,2.11496,0
4.25554,5.16434,2.92506,0.48668,2.12494,0
4.28766,5.17003,2.91886,0.53313,2.13554,0
4.31699,5.17574,2.91270,0.57585,2.14659,0
4.34414,5.18146,2.90658,0.61561,2.15798,0
4.36954,5.18720,2.90049,0.65295,2.16966,0
4.39349,5.19296,2.89444,0.68827,2.18157,0
4.41620,5.19873,2.88843,0.72186,2.19368,0
4.43786,5.20452,2.88244,0.75396,2.20596,0
4.45860,5.21032,2.87648,0.78475,2.21839,0
4.47852,5.21613,2.87054,0.81437,2.23095,0
4.49772,5.22196,2.86463,0.84296,2.24362,0
4.51627,5.22780,2.85873,0.87060,2.25640,0
4.53423,5.23365,2.85286,0.89739,2.26927,0
4.55165,5.23951,2.84699,0.92341,2.28223,0
4.56858,5.24538,2.84115,0.94871,2.29526,0
4.58506,5.25127,2.83530,0.97336,2.30837,0
4.60113,5.25716,2.82947,0.99740,2.32155,0
4.61680,5.26307,2.82364,1.02087,2.33479,0
4.63212,5.26898,2.81782,1.04381,2.34808,0
4.64710,5.27490,2.81199,1.06626,2.36143,0
4.66176,5.28083,2.80617,1.08825,2.37483,0
4.67613,5.28677,2.80033,1.10980,2.38828,0
4.69022,5.29271,2.79449,1.13094,2.40177,0
4.70404,5.29866,2.78864,1.15170,2.41530,0
4.71762,5.30461,2.78278,1.17208,2.42888,0
4.73096,5.31057,2.77690,1.19212,2.44249,0
4.74407,5.31653,2.77101,1.21182,2.45613,0
4.75697,5.32250,2.76509,1.23122,2.46982,0
4.76967,5.32847,2.75916,1.25030,2.48353,0
4.78218,5.33445,2.75319,1.26911,2.49727,0
4.79450,5.34043,2.74721,1.28764,2.51105,0
4.80664,5.34640,2.74119,1.30590,2.52485,0
4.81861,5.35238,2.73514,1.32391,2.53868,0
4.83042,5.35836,2.72905,1.34169,2.55254,0
4.84208,5.36434,2.72293,1.35922,2.56642,0
4.85358,5.37033,2.71677,1.37654,2.58033,0
4.86494,5.37630,2.71056,1.39364,2.59425,0
4.87616,5.38228,2.70432,1.41053,2.60820,0
4.88724,5.38826,2.69802,1.42723,2.62218,0
4.89820,5.39423,2.69168,1.44373,2.63617,0
4.90903,5.40020,2.68528,1.46004,2.65018,0
4.91973,5.40617,2.67883,1.47618,2.66422,0
4.93033,5.41214,2.67232,1.49213,2.67827,0
4.94080,5.41809,2.66575,1.50792,2.69234,0
4.95117,5.42405,2.65913,1.52355,2.70642,0
4.96143,5.43000,2.65243,1.53902,2.72053,0
4.97159,5.43594,2.64568,1.55433,2.73465,0
4.98165,5.44187,2.63885,1.56950,2.74878,0
4.99161,5.44780,2.63195,1.58452,2.76293,0
5.00148,5.45372,2.62497,1.59940,2.77710,0
5.01126,5.45963,2.61792,1.61414,2.79128,0
5.02094,5.46553,2.61079,1.62874,2.80548,0
5.03054,5.47143,2.60358,1.64322,2.81969,0
5.04006,5.47731,2.59629,1.65757,2.83391,0
5.04949,5.48318,2.58891,1.67180,2.84815,0
5.05884,5.48905,2.58144,1.68591,2.86240,0
5.06812,5.49489,2.57388,1.69990,2.87666,0
5.07731,5.50073,2.56622,1.71378,2.89093,0
5.08644,5.50656,2.55847,1.72754,2.90522,0
5.09549,5.51237,2.55062,1.74120,2.91952,0
5.10447,5.51817,2.54267,1.75475,2.93382,0
5.11338,5.52395,2.53461,1.76820,2.94814,0
5.12222,5.52972,2.52645,1.78154,2.96248,0
5.13100,5.53547,2.51818,1.79479,2.97682,0
5.13971,5.54121,2.50980,1.80794,2.99117,0
5.14836,5.54693,2.50131,1.82099,3.00553,0
5.15694,5.55264,2.49270,1.83395,3.01990,0
5.16547,5.55833,2.48397,1.84682,3.03428,0
5.17393,5.56400,2.47512,1.85960,3.04867,0
5.18234,5.56965,2.46615,1.87230,3.06307,0
5.19069,5.57528,2.45705,1.88491,3.07748,0
5.19899,5.58089,2.44782,1.89743,3.09190,0
5.20723,5.58648,2.43846,1.90987,3.10633,0
5.21541,5.59205,2.42897,1.92223,3.12076,0
5.22355,5.59760,2.41935,1.93452,3.13521,0
5.23163,5.60313,2.40958,1.94672,-3.13352,0
5.23966,5.60863,2.39968,1.95885,-3.11906,0
5.24764,5.61412,2.38963,1.97091,-3.10460,0
5.25558,5.61957,2.37943,1.98289,-3.09012,0
5.26346,5.62501,2.36909,1.99480,-3.07564,0
5.27130,5.63042,2.35860,2.00000,-3.06114,0
5.27912,5.63581,2.34795,2.00000,-3.04660,0
5.28693,5.64117,2.33715,2.00000,-3.03196,0
5.29475,5.64650,2.32619,2.00000,-3.01722,0
5.30257,5.65181,2.31507,2.00000,-3.00240,0
5.31039,5.65709,2.30379,1.99480,-2.98748,0
5.31822,5.66234,2.29234,1.98289,-2.97243,0
5.32611,5.66756,2.28073,1.97091,-2.95719,0
5.33404,5.67276,2.26894,1.95885,-2.94176,0
5.34202,5.67793,2.25698,1.94672,-2.92614,0
5.35005,5.68306,2.24485,1.93452,-2.91033,0
5.35814,5.68817,2.23254,1.92223,-2.89432,0
5.36627,5.69324,2.22005,1.90987,-2.87979,0
5.37446,5.69829,2.20737,1.89743,-2.87973,0
5.38270,5.70330,2.19451,1.88491,-2.87957,0
5.39099,5.70828,2.18147,1.87230,-2.87929,0
5.39934,5.71322,2.16823,1.85960,-2.87892,0
5.40775,5.71813,2.15480,1.84682,-2.87843,0
5.41622,5.72301,2.14118,1.83395,-2.87783,0
5.42474,5.72785,2.12736,1.82099,-2.87711,0
5.43333,5.73266,2.11334,1.80794,-2.87628,0
5.44198,5.73744,2.09911,1.79479,-2.87532,0
5.45069,5.74217,2.08469,1.78154,-2.87425,0
5.45946,5.74687,2.07005,1.76820,-2.87305,0
5.46831,5.75153,2.05520,1.75475,-2.87172,0
5.47722,5.75616,2.04015,1.74120,-2.87026,0
5.48620,5.76074,2.02488,1.72754,-2.86867,0
5.49525,5.76529,2.00939,1.71378,-2.86694,0
5.50437,5.76979,1.99368,1.69990,-2.86507,0
5.51357,5.77426,1.97775,1.68591,-2.86305,0
5.52284,5.77869,1.96159,1.67180,-2.86089,0
5.53219,5.78307,1.94521,1.65757,-2.85858,0
5.54163,5.78742,1.92860,1.64322,-2.85611,0
5.55114,5.79172,1.91175,1.62874,-2.85349,0
5.56074,5.79597,1.89468,1.61414,-2.85070,0
5.57043,5.80019,1.87736,1.59940,-2.84774,0
5.58020,5.80436,1.85981,1.58452,-2.84461,0
5.59007,5.80849,1.84201,1.56950,-2.84130,0
5.60003,5.81257,1.82397,1.55433,-2.83781,0
5.61009,5.81661,1.80569,1.53902,-2.83413,0
5.62025,5.82060,1.78715,1.52355,-2.83026,0
5.63051,5.82454,1.76836,1.50792,-2.82619,0
5.64088,5.82844,1.74932,1.49213,-2.82192,0
5.65136,5.83229,1.73002,1.47618,-2.81743,0
5.66195,5.83609,1.71046,1.46004,-2.81273,0
5.67266,5.83984,1.69065,1.44373,-2.80779,0
5.68349,5.84354,1.67056,1.42723,-2.80263,0
5.69444,5.84720,1.65021,1.41053,-2.79722,0
5.70553,5.85080,1.62960,1.39364,-2.79156,0
5.71675,5.85435,1.60871,1.37654,-2.78565,0
5.72811,5.85785,1.58754,1.35922,-2.77946,0
5.73961,5.86130,1.56610,1.34169,-2.77300,0
5.75126,5.86470,1.54438,1.32391,-2.76624,0
5.76307,5.86804,1.52238,1.30590,-2.75918,0
5.77505,5.87133,1.50010,1.28764,-2.75181,0
5.78719,5.87457,1.47753,1.26911,-2.74411,0
5.79951,5.87775,1.45467,1.25030,-2.73607,0
5.81201,5.88088,1.43152,1.23122,-2.72767,0
5.82471,5.88395,1.40808,1.21182,-2.71889,0
5.83761,5.88696,1.38434,1.19212,-2.70973,0
5.85073,5.88992,1.36030,1.17208,-2.70015,0
5.86407,5.89282,1.33596,1.15170,-2.69014,0
5.87764,5.89566,1.31132,1.13094,-2.67967,0
5.89147,5.89845,1.28638,1.10980,-2.66872,0
5.90556,5.90117,1.26112,1.08825,-2.65726,0
5.91993,5.90384,1.23555,1.06626,-2.64527,0
5.93459,5.90645,1.20967,1.04381,-2.63270,0
5.94957,5.90899,1.18348,1.02087,-2.61952,0
5.96488,5.91148,1.15696,0.99740,-2.60570,0
5.98056,5.91390,1.13013,0.97336,-2.59117,0
5.99662,5.91626,1.10297,0.94871,-2.57590,0
6.01310,5.91856,1.07548,0.92341,-2.55983,0
6.03003,5.92079,1.04767,0.89739,-2.54288,0
6.04746,5.92297,1.01953,0.87060,-2.52498,0
6.06542,5.92507,0.99105,0.84296,-2.50605,0
6.08396,5.92711,0.96224,0.81437,-2.48598,0
6.10316,5.92909,0.93309,0.78475,-2.46466,0
6.12309,5.93100,0.90360,0.75396,-2.44193,0
6.14382,5.93285,0.87377,0.72186,-2.41763,0
6.16548,5.93462,0.84359,0.68827,-2.39156,0
6.18820,5.93634,0.81307,0.65295,-2.36344,0
6.21215,5.93798,0.78219,0.61561,-2.33294,0
6.23754,5.93955,0.75096,0.57585,-2.29965,0
6.26469,5.94106,0.71938,0.53313,-2.26296,0
6.29402,5.94249,0.68743,0.48668,-2.22207,0
6.32615,5.94386,0.65513,0.43530,-2.17578,0
6.36207,5.94515,0.62247,0.37698,-2.12215,0
6.40354,5.94637,0.58944,0.30780,-2.05778,0
6.45434,5.94752,0.55604,0.21765,-1.97537,0
6.52617,5.94860,0.52227,0.00000,-1.85210,4096
