time,x_pos,y_pos,velocity,rotation,action
0.00010,7.57147,0.51778,0.00000,-3.14159,0
0.00020,7.57147,0.51778,0.12538,-3.14159,0
0.12502,7.55803,0.51786,0.17731,3.14022,0
0.21328,7.54461,0.51809,0.21716,3.13760,0
0.28534,7.53122,0.51848,0.25076,3.13445,0
0.34775,7.51785,0.51901,0.28036,3.13098,0
0.40357,7.50451,0.51971,0.30712,3.12730,0
0.45453,7.49120,0.52055,0.33172,3.12346,0
0.50170,7.47791,0.52154,0.35463,3.11950,0
0.54583,7.46464,0.52269,0.37614,3.11544,0
0.58744,7.45140,0.52398,0.39649,3.11130,0
0.62691,7.43818,0.52542,0.41584,3.10710,0
0.66454,7.42499,0.52701,0.43433,3.10283,0
0.70057,7.41182,0.52874,0.45206,3.09851,0
0.73519,7.39868,0.53062,0.46913,3.09415,0
0.76855,7.38556,0.53264,0.48559,3.08974,0
0.80078,7.37247,0.53481,0.50152,3.08530,0
0.83198,7.35940,0.53713,0.51695,3.08083,0
0.86226,7.34635,0.53958,0.53194,3.07633,0
0.89168,7.33334,0.54217,0.54652,3.07180,0
0.92031,7.32034,0.54491,0.56072,3.06724,0
0.94822,7.30737,0.54779,0.57456,3.06266,0
0.97546,7.29443,0.55080,0.58808,3.05806,0
1.00207,7.28151,0.55395,0.60130,3.05344,0
1.02810,7.26861,0.55725,0.61423,3.04880,0
1.05357,7.25574,0.56067,0.62690,3.04415,0
1.07854,7.24289,0.56424,0.63931,3.03947,0
1.10302,7.23007,0.56793,0.65149,3.03478,0
1.12704,7.21728,0.57176,0.66345,3.03008,0
1.15063,7.20450,0.57573,0.67519,3.02536,0
1.17380,7.19176,0.57983,0.68673,3.02063,0
1.19659,7.17903,0.58406,0.69809,3.01589,0
1.21901,7.16634,0.58842,0.70926,3.01114,0
1.24108,7.15366,0.59291,0.72025,3.00637,0
1.26280,7.14101,0.59752,0.73108,3.00159,0
1.28421,7.12839,0.60227,0.74176,2.99681,0
1.30531,7.11579,0.60715,0.75228,2.99201,0
1.32611,7.10321,0.61215,0.76266,2.98720,0
1.34663,7.09066,0.61727,0.77289,2.98239,0
1.36688,7.07813,0.62253,0.78300,2.97757,0
1.38687,7.06563,0.62790,0.79297,2.97273,0
1.40660,7.05316,0.63340,0.80282,2.96789,0
1.42609,7.04070,0.63902,0.81255,2.96304,0
1.44535,7.02828,0.64477,0.82217,2.95819,0
1.46439,7.01587,0.65063,0.83168,2.95333,0
1.48321,7.00349,0.65661,0.84107,2.94846,0
1.50181,6.99114,0.66272,0.85037,2.94358,0
1.52022,6.97881,0.66894,0.85956,2.93870,0
1.53842,6.96650,0.67528,0.86866,2.93381,0
1.55644,6.95422,0.68173,0.87766,2.92891,0
1.57427,6.94196,0.68831,0.88657,2.92401,0
1.59192,6.92973,0.69499,0.89539,2.91910,0
1.60940,6.91752,0.70179,0.90413,2.91419,0
1.62671,6.90534,0.70871,0.91278,2.90927,0
1.64385,6.89318,0.71573,0.92135,2.90435,0
1.66084,6.88104,0.72287,0.92984,2.89942,0
1.67767,6.86893,0.73012,0.93826,2.89449,0
1.69435,6.85685,0.73748,0.94660,2.88955,0
1.71088,6.84479,0.74495,0.95486,2.88461,0
1.72727,6.83275,0.75253,0.96306,2.87966,0
1.74352,6.82074,0.76021,0.97119,2.87471,0
1.75963,6.80875,0.76801,0.97925,2.86975,0
1.77562,6.79678,0.77590,0.98724,2.86479,0
1.79147,6.78484,0.78391,0.99517,2.85983,0
1.80719,6.77293,0.79201,1.00304,2.85486,0
1.82280,6.76104,0.80022,1.01084,2.84989,0
1.83828,6.74917,0.80854,1.01859,2.84491,0
1.85364,6.73733,0.81695,1.02628,2.83993,0
1.86889,6.72551,0.82547,1.03391,2.83494,0
1.88403,6.71371,0.83408,1.04148,2.82996,0
1.89905,6.70194,0.84280,1.04900,2.82497,0
1.91397,6.69020,0.85161,1.05647,2.81997,0
1.92878,6.67848,0.86053,1.06388,2.81497,0
1.94349,6.66678,0.86953,1.07125,2.80997,0
1.95810,6.65511,0.87864,1.07856,2.80497,0
1.97261,6.64346,0.88784,1.08582,2.79996,0
1.98703,6.63183,0.89713,1.09304,2.79495,0
2.00134,6.62023,0.90652,1.10020,2.78994,0
2.01557,6.60866,0.91600,1.10733,2.78492,0
2.02970,6.59711,0.92557,1.11440,2.77990,0
2.04374,6.58558,0.93524,1.12143,2.77488,0
2.05770,6.57408,0.94499,1.12842,2.76985,0
2.07157,6.56260,0.95483,1.13536,2.76482,0
2.08535,6.55114,0.96476,1.14227,2.75979,0
2.09905,6.53971,0.97478,1.14913,2.75476,0
2.11267,6.52830,0.98489,1.15595,2.74972,0
2.12621,6.51692,0.99508,1.16273,2.74468,0
2.13967,6.50556,1.00536,1.16947,2.73964,0
2.15305,6.49423,1.01572,1.17617,2.73460,0
2.16636,6.48292,1.02617,1.18283,2.72955,0
2.17959,6.47163,1.03670,1.18946,2.72450,0
2.19274,6.46037,1.04731,1.19605,2.71945,0
2.20583,6.44913,1.05800,1.20260,2.71440,0
2.21884,6.43792,1.06877,1.20912,2.70935,0
2.23178,6.42673,1.07962,1.21560,2.70429,0
2.24466,6.41556,1.09055,1.22205,2.69923,0
2.25746,6.40442,1.10156,1.22847,2.69417,0
2.27020,6.39330,1.11264,1.23485,2.68910,0
2.28288,6.38221,1.12381,1.24120,2.68403,0
2.29548,6.37114,1.13504,1.24751,2.67897,0
2.30803,6.36009,1.14635,1.25380,2.67390,0
2.32051,6.34907,1.15774,1.26005,2.66882,0
2.33293,6.33807,1.16919,1.26627,2.66375,0
2.34529,6.32710,1.18072,1.27247,2.65867,0
2.35759,6.31615,1.19233,1.27863,2.65359,0
2.36983,6.30522,1.20400,1.28476,2.64851,0
2.38201,6.29432,1.21574,1.29086,2.64343,0
2.39413,6.28344,1.22755,1.29694,2.63835,0
2.40620,6.27259,1.23942,1.30299,2.63326,0
2.41821,6.26176,1.25137,1.30900,2.62817,0
2.43016,6.25095,1.26338,1.31500,2.62309,0
2.44206,6.24017,1.27546,1.31500,2.61799,0
2.45397,6.22941,1.28760,1.30900,2.61290,0
2.46592,6.21868,1.29980,1.30299,2.60781,0
2.47793,6.20796,1.31207,1.29694,2.60273,0
2.49000,6.19728,1.32440,1.29086,2.59764,0
2.50212,6.18662,1.33679,1.28476,2.59256,0
2.51430,6.17598,1.34924,1.27863,2.58747,0
2.52654,6.16536,1.36175,1.27247,2.58239,0
2.53884,6.15477,1.37432,1.26627,2.57732,0
2.55120,6.14420,1.38695,1.26005,2.57224,0
2.56362,6.13366,1.39963,1.25380,2.56716,0
2.57610,6.12314,1.41238,1.24751,2.56209,0
2.58865,6.11264,1.42517,1.24120,2.55702,0
2.60125,6.10217,1.43802,1.23485,2.55195,0
2.61393,6.09172,1.45093,1.22847,2.54689,0
2.62667,6.08130,1.46389,1.22205,2.54182,0
2.63947,6.07090,1.47690,1.21560,2.53676,0
2.65235,6.06052,1.48996,1.20912,2.53170,0
2.66529,6.05016,1.50307,1.20260,2.52664,0
2.67830,6.03983,1.51624,1.19605,2.52159,0
2.69139,6.02953,1.52945,1.18946,2.51653,0
2.70454,6.01925,1.54271,1.18283,2.51148,0
2.71777,6.00899,1.55601,1.17617,2.50643,0
2.73108,5.99875,1.56937,1.16947,2.50139,0
2.74446,5.98854,1.58277,1.16273,2.49635,0
2.75792,5.97835,1.59621,1.15595,2.49130,0
2.77146,5.96819,1.60970,1.14913,2.48627,0
2.78508,5.95805,1.62323,1.14227,2.48123,0
2.79878,5.94793,1.63680,1.13536,2.47620,0
2.81256,5.93784,1.65041,1.12842,2.47116,0
2.82643,5.92777,1.66407,1.12143,2.46614,0
2.84039,5.91773,1.67776,1.11440,2.46111,0
2.85443,5.90770,1.69150,1.10733,2.45609,0
2.86856,5.89771,1.70527,1.10020,2.45107,0
2.88279,5.88773,1.71908,1.09304,2.44605,0
2.89710,5.87778,1.73292,1.08582,2.44104,0
2.91152,5.86785,1.74680,1.07856,2.43603,0
2.92603,5.85795,1.76072,1.07125,2.43102,0
2.94064,5.84807,1.77467,1.06388,2.42602,0
2.95535,5.83821,1.78865,1.05647,2.42101,0
2.97016,5.82838,1.80267,1.04900,2.41602,0
2.98508,5.81857,1.81672,1.04148,2.41102,0
3.00010,5.80878,1.83080,1.03391,2.40603,0
3.01524,5.79902,1.84490,1.02628,2.40104,0
3.03049,5.78928,1.85904,1.01859,2.39606,0
3.04585,5.77956,1.87320,1.01084,2.39108,0
3.06133,5.76987,1.88740,1.00304,2.38610,0
3.07694,5.76020,1.90162,0.99517,2.38113,0
3.09266,5.75056,1.91586,0.98724,2.37616,0
3.10851,5.74094,1.93013,0.97925,2.37120,0
3.12450,5.73134,1.94442,0.97119,2.36624,0
3.14061,5.72176,1.95874,0.96306,2.36128,0
3.15686,5.71221,1.97308,0.95486,2.35633,0
3.17325,5.70268,1.98744,0.94660,2.35138,0
3.18978,5.69318,2.00182,0.93826,2.34644,0
3.20646,5.68370,2.01623,0.92984,2.34150,0
3.22329,5.67424,2.03065,0.92135,2.33657,0
3.24028,5.66481,2.04509,0.91278,2.33164,0
3.25742,5.65540,2.05954,0.90413,2.32671,0
3.27473,5.64601,2.07402,0.89539,2.32180,0
3.29221,5.63664,2.08851,0.88657,2.31688,0
3.30986,5.62730,2.10301,0.87766,2.31198,0
3.32769,5.61799,2.11753,0.86866,2.30708,0
3.34571,5.60869,2.13206,0.85956,2.30218,0
3.36391,5.59942,2.14661,0.85037,2.29729,0
3.38232,5.59017,2.16116,0.84107,2.29241,0
3.40092,5.58095,2.17573,0.83168,2.28753,0
3.41974,5.57175,2.19031,0.82217,2.28266,0
3.43878,5.56257,2.20489,0.81255,2.27780,0
3.45803,5.55342,2.21949,0.80282,2.27294,0
3.47753,5.54429,2.23409,0.79297,2.26810,0
3.49726,5.53518,2.24870,0.78300,2.26326,0
3.51725,5.52609,2.26331,0.77289,2.25842,0
3.53750,5.51703,2.27793,0.76266,2.25360,0
3.55802,5.50800,2.29256,0.75228,2.24878,0
3.57882,5.49898,2.30718,0.74176,2.24398,0
3.59992,5.48999,2.32181,0.73108,2.23918,0
3.62133,5.48102,2.33645,0.72025,2.23439,0
3.64305,5.47208,2.35108,0.70926,2.22962,0
3.66512,5.46316,2.36571,0.69809,2.22485,0
3.68754,5.45426,2.38034,0.68673,2.22010,0
3.71032,5.44538,2.39498,0.67519,2.21535,0
3.73350,5.43653,2.40960,0.66345,2.21062,0
3.75709,5.42770,2.42423,0.65149,2.20591,0
3.78111,5.41890,2.43885,0.63931,2.20120,0
3.80559,5.41011,2.45347,0.62690,2.19652,0
3.83055,5.40135,2.46808,0.61423,2.19184,0
3.85603,5.39262,2.48268,0.60130,2.18719,0
3.88206,5.38390,2.49728,0.58808,2.18255,0
3.90867,5.37521,2.51187,0.57456,2.17793,0
3.93591,5.36655,2.52645,0.56072,2.17333,0
3.96382,5.35790,2.54102,0.54652,2.16875,0
3.99245,5.34928,2.55558,0.53194,2.16419,0
4.02187,5.34068,2.57012,0.51695,2.15966,0
4.05215,5.33211,2.58466,0.50152,2.15516,0
4.08335,5.32356,2.59918,0.48559,2.15069,0
4.11558,5.31503,2.61369,0.46913,2.14625,0
4.14894,5.30652,2.62818,0.45206,2.14184,0
4.18355,5.29804,2.64266,0.43433,2.13748,0
4.21959,5.28958,2.65712,0.41584,2.13316,0
4.25722,5.28115,2.67157,0.39649,2.12889,0
4.29669,5.27273,2.68600,0.37614,2.12469,0
4.33830,5.26434,2.70040,0.35463,2.12055,0
4.38243,5.25597,2.71479,0.33172,2.11649,0
4.42960,5.24763,2.72916,0.30712,2.11253,0
4.48056,5.23931,2.74351,0.28036,2.10869,0
4.53638,5.23101,2.75783,0.25076,2.10501,0
4.59879,5.22274,2.77213,0.21716,2.10154,0
4.67085,5.21448,2.78641,0.17731,2.09839,0
4.75911,5.20625,2.80066,0.12538,2.09577,0
4.88393,5.19805,2.81489,0.00000,2.09439,36880
