time,x_pos,y_pos,velocity,rotation,action
0.00010,7.57096,0.48758,0.00000,-3.14159,16
0.00020,7.57096,0.48758,0.35477,-3.14159,0
0.04440,7.55463,0.50064,0.50172,3.14015,0
0.07565,7.53838,0.51364,0.61448,3.13740,0
0.10116,7.52219,0.52659,0.70954,3.13410,0
0.12326,7.50607,0.53950,0.79329,3.13046,0
0.14303,7.49001,0.55235,0.86900,3.12660,0
0.16107,7.47403,0.56515,0.93863,3.12258,0
0.17777,7.45811,0.57790,1.00344,3.11843,0
0.19340,7.44226,0.59060,1.06431,3.11418,0
0.20813,7.42647,0.60325,1.12188,3.10984,0
0.22211,7.41075,0.61585,1.17663,3.10543,0
0.23543,7.39510,0.62841,1.22895,3.10095,0
0.24819,7.37951,0.64092,1.27914,3.09643,0
0.26045,7.36398,0.65338,1.32742,3.09186,0
0.27226,7.34853,0.66579,1.37401,3.08724,0
0.28367,7.33313,0.67816,1.41907,3.08259,0
0.29472,7.31780,0.69048,1.46275,3.07790,0
0.30544,7.30254,0.70276,1.50515,3.07318,0
0.31586,7.28734,0.71499,1.54640,3.06843,0
0.32600,7.27220,0.72718,1.58657,3.06366,0
0.33588,7.25713,0.73932,1.62575,3.05886,0
0.34552,7.24212,0.75143,1.66401,3.05404,0
0.35494,7.22717,0.76348,1.70141,3.04920,0
0.36416,7.21228,0.77550,1.73800,3.04434,0
0.37318,7.19746,0.78747,1.77384,3.03946,0
0.38202,7.18270,0.79941,1.80897,3.03456,0
0.39069,7.16800,0.81130,1.84343,3.02965,0
0.39919,7.15337,0.82315,1.87726,3.02472,0
0.40755,7.13879,0.83496,1.91049,3.01977,0
0.41575,7.12428,0.84673,1.94315,3.01482,0
0.42382,7.10982,0.85847,1.97527,3.00985,0
0.43176,7.09543,0.87016,2.00687,3.00487,0
0.43957,7.08110,0.88182,2.03799,2.99987,0
0.44727,7.06683,0.89343,2.06864,2.99487,0
0.45485,7.05261,0.90501,2.09884,2.98985,0
0.46232,7.03846,0.91656,2.12861,2.98482,0
0.46968,7.02436,0.92807,2.15797,2.97979,0
0.47695,7.01033,0.93954,2.18694,2.97474,0
0.48412,6.99635,0.95098,2.21553,2.96969,0
0.49119,6.98243,0.96238,2.24375,2.96462,0
0.49818,6.96858,0.97375,2.27163,2.95955,0
0.50508,6.95477,0.98508,2.29916,2.95447,0
0.51190,6.94103,0.99638,2.32637,2.94938,0
0.51864,6.92734,1.00765,2.35327,2.94429,0
0.52531,6.91371,1.01888,2.37986,2.93918,0
0.53189,6.90014,1.03009,2.40616,2.93407,0
0.53841,6.88662,1.04126,2.43217,2.92896,0
0.54486,6.87316,1.05240,2.45791,2.92383,0
0.55124,6.85975,1.06351,2.48338,2.91870,0
0.55755,6.84641,1.07459,2.50859,2.91357,0
0.56380,6.83311,1.08564,2.53355,2.90843,0
0.56999,6.81988,1.09666,2.55827,2.90328,0
0.57612,6.80669,1.10765,2.58275,2.89812,0
0.58219,6.79356,1.11862,2.60700,2.89296,0
0.58820,6.78049,1.12955,2.63103,2.88780,0
0.59416,6.76747,1.14046,2.65484,2.88263,0
0.60007,6.75450,1.15134,2.67844,2.87746,0
0.60592,6.74159,1.16220,2.70184,2.87228,0
0.61173,6.72873,1.17303,2.72503,2.86709,0
0.61748,6.71593,1.18383,2.74802,2.86190,0
0.62318,6.70317,1.19461,2.77083,2.85671,0
0.62884,6.69047,1.20537,2.79345,2.85151,0
0.63446,6.67782,1.21610,2.81589,2.84631,0
0.64002,6.66523,1.22681,2.83815,2.84110,0
0.64555,6.65268,1.23749,2.86023,2.83589,0
0.65103,6.64019,1.24815,2.88215,2.83068,0
0.65647,6.62775,1.25879,2.90390,2.82546,0
0.66187,6.61536,1.26941,2.92550,2.82024,0
0.66723,6.60302,1.28001,2.94693,2.81501,0
0.67255,6.59073,1.29058,2.96821,2.80978,0
0.67783,6.57849,1.30114,2.98933,2.80455,0
0.68308,6.56630,1.31168,3.01031,2.79931,0
0.68829,6.55416,1.32219,3.03114,2.79407,0
0.69346,6.54207,1.33269,3.05183,2.78883,0
0.69860,6.53003,1.34317,3.07238,2.78358,0
0.70370,6.51804,1.35363,3.09280,2.77833,0
0.70877,6.50610,1.36408,3.11308,2.77307,0
0.71381,6.49420,1.37450,3.13323,2.76782,0
0.71881,6.48235,1.38492,3.15325,2.76256,0
0.72378,6.47055,1.39531,3.17315,2.75730,0
0.72872,6.45880,1.40569,3.19292,2.75203,0
0.73363,6.44710,1.41606,3.21256,2.74676,0
0.73852,6.43544,1.42640,3.23209,2.74149,0
0.74337,6.42383,1.43674,3.25151,2.73621,0
0.74819,6.41226,1.44706,3.27080,2.73094,0
0.75298,6.40074,1.45737,3.28999,2.72566,0
0.75775,6.38927,1.46767,3.30906,2.72038,0
0.76249,6.37785,1.47795,3.32802,2.71509,0
0.76720,6.36646,1.48822,3.34688,2.70980,0
0.77188,6.35513,1.49849,3.36563,2.70451,0
0.77654,6.34384,1.50874,3.38428,2.69922,0
0.78117,6.33259,1.51898,3.40282,2.69393,0
0.78578,6.32139,1.52921,3.42126,2.68863,0
0.79036,6.31023,1.53943,3.43961,2.68333,0
0.79492,6.29912,1.54964,3.45785,2.67803,0
0.79946,6.28804,1.55984,3.47601,2.67272,0
0.80397,6.27702,1.57004,3.49406,2.66742,0
0.80846,6.26603,1.58022,3.51203,2.66211,0
0.81292,6.25509,1.59041,3.52990,2.65680,0
0.81736,6.24419,1.60058,3.54768,2.65148,0
0.82178,6.23333,1.61075,3.56538,2.64617,0
0.82618,6.22252,1.62091,3.58299,2.64085,0
0.83055,6.21174,1.63107,3.60051,2.63553,0
0.83491,6.20101,1.64122,3.61794,2.63021,0
0.83924,6.19032,1.65137,3.63529,2.62489,0
0.84356,6.17967,1.66151,3.65256,2.61956,0
0.84785,6.16906,1.67165,3.66975,2.61425,0
0.85212,6.15849,1.68179,3.68686,2.60898,0
0.85637,6.14796,1.69193,3.70389,2.60377,0
0.86061,6.13747,1.70206,3.72084,2.59861,0
0.86482,6.12702,1.71220,3.73772,2.59349,0
0.86902,6.11661,1.72233,3.72084,2.58843,0
0.87323,6.10624,1.73246,3.70389,2.58337,0
0.87746,6.09591,1.74259,3.68686,2.57831,0
0.88172,6.08562,1.75272,3.66975,2.57325,0
0.88599,6.07536,1.76286,3.65256,2.56820,0
0.89028,6.06514,1.77299,3.63529,2.56315,0
0.89459,6.05496,1.78313,3.61794,2.55811,0
0.89893,6.04482,1.79327,3.60051,2.55307,0
0.90328,6.03471,1.80341,3.58299,2.54803,0
0.90766,6.02464,1.81355,3.56538,2.54299,0
0.91206,6.01461,1.82370,3.54768,2.53796,0
0.91648,6.00462,1.83385,3.52990,2.53293,0
0.92092,5.99466,1.84401,3.51203,2.52791,0
0.92538,5.98473,1.85417,3.49406,2.52289,0
0.92987,5.97485,1.86434,3.47601,2.51787,0
0.93438,5.96499,1.87452,3.45785,2.51285,0
0.93891,5.95517,1.88470,3.43961,2.50784,0
0.94347,5.94539,1.89489,3.42126,2.50284,0
0.94806,5.93564,1.90508,3.40282,2.49783,0
0.95266,5.92593,1.91529,3.38428,2.49284,0
0.95730,5.91625,1.92550,3.36563,2.48784,0
0.96196,5.90660,1.93572,3.34688,2.48285,0
0.96664,5.89699,1.94595,3.32802,2.47786,0
0.97135,5.88741,1.95619,3.30906,2.47288,0
0.97609,5.87786,1.96644,3.28999,2.46791,0
0.98086,5.86835,1.97670,3.27080,2.46293,0
0.98565,5.85887,1.98698,3.25151,2.45796,0
0.99047,5.84942,1.99726,3.23209,2.45300,0
0.99532,5.84000,2.00756,3.21256,2.44804,0
1.00020,5.83061,2.01787,3.19292,2.44308,0
1.00511,5.82126,2.02819,3.17315,2.43813,0
1.01005,5.81193,2.03853,3.15325,2.43319,0
1.01503,5.80264,2.04888,3.13323,2.42825,0
1.02003,5.79338,2.05925,3.11308,2.42331,0
1.02507,5.78415,2.06963,3.09280,2.41838,0
1.03014,5.77494,2.08002,3.07238,2.41346,0
1.03524,5.76577,2.09044,3.05183,2.40854,0
1.04038,5.75663,2.10086,3.03114,2.40362,0
1.04555,5.74751,2.11131,3.01031,2.39872,0
1.05076,5.73843,2.12177,2.98933,2.39381,0
1.05601,5.72937,2.13225,2.96821,2.38892,0
1.06129,5.72034,2.14275,2.94693,2.38403,0
1.06661,5.71134,2.15327,2.92550,2.37914,0
1.07197,5.70237,2.16381,2.90390,2.37426,0
1.07737,5.69343,2.17437,2.88215,2.36939,0
1.08281,5.68451,2.18495,2.86023,2.36452,0
1.08829,5.67562,2.19554,2.83815,2.35966,0
1.09381,5.66676,2.20616,2.81589,2.35481,0
1.09938,5.65792,2.21681,2.79345,2.34997,0
1.10499,5.64911,2.22747,2.77083,2.34513,0
1.11065,5.64033,2.23816,2.74802,2.34030,0
1.11636,5.63157,2.24886,2.72503,2.33547,0
1.12211,5.62284,2.25960,2.70184,2.33066,0
1.12792,5.61413,2.27035,2.67844,2.32585,0
1.13377,5.60545,2.28114,2.65484,2.32105,0
1.13968,5.59679,2.29194,2.63103,2.31626,0
1.14563,5.58816,2.30277,2.60700,2.31148,0
1.15165,5.57955,2.31363,2.58275,2.30670,0
1.15772,5.57096,2.32452,2.55827,2.30194,0
1.16385,5.56240,2.33543,2.53355,2.29718,0
1.17004,5.55386,2.34636,2.50859,2.29243,0
1.17629,5.54534,2.35733,2.48338,2.28770,0
1.18260,5.53685,2.36833,2.45791,2.28297,0
1.18898,5.52838,2.37935,2.43217,2.27826,0
1.19543,5.51993,2.39040,2.40616,2.27355,0
1.20194,5.51151,2.40148,2.37986,2.26886,0
1.20853,5.50311,2.41260,2.35327,2.26417,0
1.21519,5.49472,2.42374,2.32637,2.25950,0
1.22193,5.48636,2.43491,2.29916,2.25484,0
1.22875,5.47802,2.44612,2.27163,2.25020,0
1.23566,5.46970,2.45735,2.24375,2.24557,0
1.24264,5.46140,2.46863,2.21553,2.24095,0
1.24972,5.45312,2.47993,2.18694,2.23634,0
1.25689,5.44486,2.49126,2.15797,2.23175,0
1.26416,5.43663,2.50264,2.12861,2.22718,0
1.27152,5.42841,2.51404,2.09884,2.22262,0
1.27899,5.42021,2.52548,2.06864,2.21808,0
1.28657,5.41202,2.53695,2.03799,2.21355,0
1.29427,5.40386,2.54847,2.00687,2.20905,0
1.30208,5.39571,2.56001,1.97527,2.20456,0
1.31002,5.38759,2.57160,1.94315,2.20009,0
1.31809,5.37948,2.58322,1.91049,2.19564,0
1.32629,5.37139,2.59488,1.87726,2.19122,0
1.33464,5.36331,2.60657,1.84343,2.18682,0
1.34315,5.35526,2.61831,1.80897,2.18244,0
1.35182,5.34721,2.63008,1.77384,2.17809,0
1.36066,5.33919,2.64190,1.73800,2.17377,0
1.36968,5.33118,2.65375,1.70141,2.16947,0
1.37889,5.32319,2.66565,1.66401,2.16521,0
1.38832,5.31521,2.67758,1.62575,2.16098,0
1.39796,5.30725,2.68956,1.58657,2.15678,0
1.40784,5.29931,2.70158,1.54640,2.15262,0
1.41798,5.29138,2.71364,1.50515,2.14851,0
1.42840,5.28346,2.72574,1.46275,2.14444,0
1.43912,5.27556,2.73789,1.41907,2.14041,0
1.45017,5.26767,2.75008,1.37401,2.13644,0
1.46158,5.25980,2.76232,1.32742,2.13253,0
1.47339,5.25193,2.77460,1.27914,2.12868,0
1.48565,5.24409,2.78693,1.22895,2.12490,0
1.49841,5.23625,2.79930,1.17663,2.12120,0
1.51173,5.22843,2.81172,1.12188,2.11760,0
1.52571,5.22062,2.82418,1.06431,2.11409,0
1.54044,5.21283,2.83669,1.00344,2.11071,0
1.55607,5.20504,2.84925,0.93863,2.10747,0
1.57277,5.19727,2.86186,0.86900,2.10440,0
1.59081,5.18951,2.87451,0.79329,2.10155,0
1.61058,5.18175,2.88722,0.70954,2.09897,0
1.63267,5.17401,2.89997,0.61448,2.09677,0
1.65819,5.16629,2.91278,0.50172,2.09512,0
1.68944,5.15857,2.92563,0.35477,2.09440,0
1.77783,5.13547,2.96450,0.00000,2.09440,36897
1.77793,5.13547,2.96450,0.35477,2.09440,0
1.82207,5.14640,2.94529,0.50172,2.09583,0
1.85328,5.15712,2.92618,0.61448,2.09857,0
1.87877,5.16763,2.90719,0.70954,2.10186,0
1.90084,5.17793,2.88831,0.79329,2.10548,0
1.92058,5.18802,2.86953,0.86900,2.10933,0
1.93860,5.19790,2.85087,0.93863,2.11333,0
1.95528,5.20757,2.83232,1.00344,2.11747,0
1.97089,5.21704,2.81387,1.06431,2.12170,0
1.98560,5.22630,2.79554,1.12188,2.12603,0
1.99956,5.23535,2.77731,1.17663,2.13042,0
2.01287,5.24421,2.75919,1.22895,2.13487,0
2.02561,5.25285,2.74118,1.27914,2.13938,0
2.03785,5.26130,2.72328,1.32742,2.14394,0
2.04965,5.26954,2.70548,1.37401,2.14853,0
2.06105,5.27758,2.68779,1.41907,2.15317,0
2.07208,5.28542,2.67021,1.46275,2.15784,0
2.08279,5.29306,2.65273,1.50515,2.16254,0
2.09319,5.30050,2.63536,1.54640,2.16727,0
2.10332,5.30774,2.61810,1.58657,2.17202,0
2.11319,5.31478,2.60094,1.62575,2.17680,0
2.12282,5.32163,2.58389,1.66401,2.18160,0
2.13223,5.32828,2.56694,1.70141,2.18643,0
2.14143,5.33474,2.55009,1.73800,2.19127,0
2.15044,5.34100,2.53335,1.77384,2.19613,0
2.15927,5.34707,2.51672,1.80897,2.20101,0
2.16793,5.35294,2.50019,1.84343,2.20590,0
2.17642,5.35863,2.48376,1.87726,2.21081,0
2.18476,5.36412,2.46744,1.91049,2.21573,0
2.19296,5.36942,2.45121,1.94315,2.22067,0
2.20102,5.37453,2.43510,1.97527,2.22562,0
2.20895,5.37945,2.41908,2.00687,2.23058,0
2.21675,5.38418,2.40316,2.03799,2.23556,0
2.22443,5.38873,2.38735,2.06864,2.24054,0
2.23200,5.39309,2.37164,2.09884,2.24554,0
2.23947,5.39726,2.35603,2.12861,2.25055,0
2.24682,5.40125,2.34052,2.15797,2.25556,0
2.25408,5.40505,2.32511,2.18694,2.26059,0
2.26124,5.40867,2.30980,2.21553,2.26562,0
2.26831,5.41211,2.29459,2.24375,2.27067,0
2.27529,5.41536,2.27948,2.27163,2.27572,0
2.28218,5.41843,2.26447,2.29916,2.28078,0
2.28899,5.42132,2.24956,2.32637,2.28585,0
2.29572,5.42404,2.23475,2.35327,2.29092,0
2.30238,5.42657,2.22004,2.37986,2.29601,0
2.30896,5.42893,2.20542,2.40616,2.30110,0
2.31546,5.43110,2.19091,2.43217,2.30619,0
2.32190,5.43310,2.17649,2.45791,2.31130,0
2.32827,5.43493,2.16217,2.48338,2.31641,0
2.33458,5.43658,2.14794,2.50859,2.32152,0
2.34082,5.43805,2.13381,2.53355,2.32664,0
2.34700,5.43935,2.11978,2.55827,2.33177,0
2.35312,5.44048,2.10585,2.58275,2.33691,0
2.35919,5.44144,2.09201,2.60700,2.34204,0
2.36519,5.44222,2.07826,2.63103,2.34719,0
2.37115,5.44284,2.06461,2.65484,2.35234,0
2.37704,5.44328,2.05106,2.67844,2.35749,0
2.38289,5.44356,2.03760,2.70184,2.36265,0
2.38869,5.44367,2.02423,2.72503,2.36781,0
2.39443,5.44361,2.01096,2.74802,2.37298,0
2.40013,5.44338,1.99779,2.77083,2.37816,0
2.40578,5.44299,1.98470,2.79345,2.38333,0
2.41139,5.44243,1.97171,2.81589,2.38851,0
2.41695,5.44170,1.95882,2.83815,2.39370,0
2.42247,5.44082,1.94601,2.86023,2.39889,0
2.42794,5.43977,1.93330,2.88215,2.40409,0
2.43338,5.43856,1.92068,2.90390,2.40928,0
2.43877,5.43718,1.90815,2.92550,2.41449,0
2.44412,5.43565,1.89571,2.94693,2.41969,0
2.44944,5.43396,1.88337,2.96821,2.42490,0
2.45471,5.43211,1.87111,2.98933,2.43011,0
2.45995,5.43010,1.85895,3.01031,2.43533,0
2.46515,5.42793,1.84688,3.03114,2.44055,0
2.47032,5.42561,1.83489,3.05183,2.44577,0
2.47545,5.42313,1.82300,3.07238,2.45100,0
2.48055,5.42049,1.81119,3.09280,2.45623,0
2.48561,5.41770,1.79948,3.11308,2.46146,0
2.49064,5.41476,1.78785,3.13323,2.46670,0
2.49564,5.41166,1.77631,3.15325,2.47194,0
2.50060,5.40841,1.76486,3.17315,2.47718,0
2.50554,5.40501,1.75350,3.19292,2.48242,0
2.51044,5.40146,1.74222,3.21256,2.48767,0
2.51532,5.39776,1.73104,3.23209,2.49292,0
2.52016,5.39391,1.71994,3.25151,2.49818,0
2.52498,5.38992,1.70892,3.27080,2.50343,0
2.52977,5.38577,1.69800,3.28999,2.50869,0
2.53453,5.38148,1.68715,3.30906,2.51395,0
2.53926,5.37705,1.67640,3.32802,2.51922,0
2.54396,5.37246,1.66573,3.34688,2.52448,0
2.54864,5.36774,1.65515,3.36563,2.52975,0
2.55329,5.36287,1.64465,3.38428,2.53503,0
2.55792,5.35786,1.63423,3.40282,2.54030,0
2.56252,5.35270,1.62390,3.42126,2.54558,0
2.56710,5.34740,1.61366,3.43961,2.55085,0
2.57165,5.34197,1.60350,3.45785,2.55614,0
2.57618,5.33639,1.59342,3.47601,2.56142,0
2.58069,5.33068,1.58342,3.49406,2.56670,0
2.58517,5.32482,1.57351,3.51203,2.57199,0
2.58963,5.31883,1.56368,3.52990,2.57728,0
2.59406,5.31271,1.55393,3.54768,2.58257,0
2.59848,5.30644,1.54427,3.56538,2.58787,0
2.60287,5.30005,1.53468,3.58299,2.59317,0
2.60724,5.29351,1.52518,3.60051,2.59846,0
2.61159,5.28685,1.51576,3.61794,2.60376,0
2.61592,5.28005,1.50642,3.63529,2.60907,0
2.62023,5.27312,1.49716,3.65256,2.61437,0
2.62451,5.26606,1.48798,3.66975,2.61968,0
2.62878,5.25886,1.47889,3.68686,2.62498,0
2.63303,5.25154,1.46987,3.70389,2.63029,0
2.63725,5.24409,1.46093,3.72084,2.63561,0
2.64146,5.23651,1.45207,3.73772,2.64092,0
2.64565,5.22881,1.44328,3.75452,2.64624,0
2.64982,5.22097,1.43458,3.77124,2.65155,0
2.65398,5.21302,1.42596,3.78789,2.65687,0
2.65811,5.20493,1.41741,3.80447,2.66219,0
2.66223,5.19672,1.40894,3.82097,2.66751,0
2.66632,5.18839,1.40055,3.83741,2.67284,0
2.67041,5.17994,1.39223,3.85377,2.67816,0
2.67447,5.17136,1.38399,3.87007,2.68349,0
2.67851,5.16266,1.37583,3.88629,2.68882,0
2.68254,5.15385,1.36775,3.90245,2.69415,0
2.68656,5.14491,1.35974,3.91855,2.69948,0
2.69055,5.13585,1.35180,3.93457,2.70482,0
2.69453,5.12668,1.34395,3.95053,2.71015,0
2.69850,5.11739,1.33616,3.96643,2.71549,0
2.70244,5.10798,1.32845,3.98227,2.72083,0
2.70638,5.09846,1.32082,3.99804,2.72617,0
2.71029,5.08882,1.31326,4.01375,2.73151,0
2.71420,5.07906,1.30577,4.02939,2.73685,0
2.71808,5.06920,1.29836,4.04498,2.74219,0
2.72195,5.05922,1.29102,4.06051,2.74754,0
2.72581,5.04913,1.28375,4.07598,2.75288,0
2.72965,5.03893,1.27656,4.09139,2.75823,0
2.73348,5.02861,1.26944,4.10674,2.76358,0
2.73729,5.01819,1.26239,4.12204,2.76893,0
2.74109,5.00766,1.25541,4.13727,2.77429,0
2.74488,4.99702,1.24850,4.15246,2.77964,0
2.74865,4.98628,1.24167,4.16758,2.78499,0
2.75240,4.97542,1.23490,4.18266,2.79035,0
2.75615,4.96446,1.22821,4.19768,2.79571,0
2.75988,4.95340,1.22159,4.21264,2.80107,0
2.76360,4.94223,1.21503,4.22755,2.80643,0
2.76730,4.93096,1.20855,4.24241,2.81179,0
2.77099,4.91959,1.20214,4.25722,2.81715,0
2.77467,4.90811,1.19579,4.27198,2.82251,0
2.77834,4.89654,1.18952,4.28668,2.82788,0
2.78199,4.88486,1.18331,4.30134,2.83324,0
2.78563,4.87308,1.17717,4.31594,2.83861,0
2.78926,4.86121,1.17110,4.33050,2.84398,0
2.79287,4.84924,1.16509,4.34501,2.84935,0
2.79648,4.83717,1.15916,4.35947,2.85472,0
2.80007,4.82500,1.15329,4.37388,2.86009,0
2.80365,4.81274,1.14749,4.38824,2.86547,0
2.80722,4.80038,1.14175,4.40256,2.87084,0
2.81078,4.78793,1.13608,4.41683,2.87621,0
2.81432,4.77538,1.13048,4.43106,2.88159,0
2.81785,4.76274,1.12494,4.44523,2.88697,0
2.82138,4.75002,1.11947,4.45937,2.89235,0
2.82489,4.73719,1.11406,4.47346,2.89773,0
2.82839,4.72428,1.10872,4.48750,2.90311,0
2.83188,4.71128,1.10344,4.50150,2.90849,0
2.83536,4.69819,1.09822,4.51546,2.91387,0
2.83883,4.68502,1.09307,4.52938,2.91925,0
2.84228,4.67175,1.08799,4.54325,2.92464,0
2.84573,4.65840,1.08296,4.55708,2.93002,0
2.84917,4.64497,1.07800,4.57087,2.93541,0
2.85259,4.63144,1.07310,4.58462,2.94080,0
2.85601,4.61784,1.06827,4.59832,2.94619,0
2.85941,4.60415,1.06349,4.61199,2.95157,0
2.86281,4.59038,1.05878,4.62561,2.95696,0
2.86619,4.57653,1.05413,4.63920,2.96236,0
2.86957,4.56259,1.04954,4.65274,2.96775,0
2.87294,4.54858,1.04501,4.66625,2.97314,0
2.87629,4.53449,1.04055,4.67971,2.97854,0
2.87964,4.52031,1.03614,4.69314,2.98393,0
2.88297,4.50606,1.03179,4.70653,2.98933,0
2.88630,4.49174,1.02751,4.71988,2.99472,0
2.88962,4.47733,1.02328,4.73320,3.00012,0
2.89293,4.46285,1.01911,4.74648,3.00552,0
2.89623,4.44830,1.01500,4.75972,3.01092,0
2.89952,4.43367,1.01095,4.77292,3.01632,0
2.90280,4.41897,1.00696,4.78609,3.02172,0
2.90607,4.40419,1.00302,4.79922,3.02712,0
2.90933,4.38935,0.99914,4.81231,3.03252,0
2.91259,4.37443,0.99532,4.82537,3.03793,0
2.91583,4.35945,0.99156,4.82537,3.04333,0
2.91908,4.34439,0.98785,4.81231,3.04875,0
2.92233,4.32926,0.98421,4.79922,3.05420,0
2.92559,4.31407,0.98061,4.78609,3.05968,0
2.92887,4.29881,0.97707,4.77292,3.06519,0
2.93215,4.28348,0.97359,4.75972,3.07074,0
2.93544,4.26809,0.97017,4.74648,3.07631,0
2.93874,4.25264,0.96680,4.73320,3.08191,0
2.94204,4.23711,0.96348,4.71988,3.08753,0
2.94536,4.22153,0.96022,4.70653,3.09314,0
2.94869,4.20588,0.95701,4.69314,3.09875,0
2.95203,4.19018,0.95385,4.67971,3.10436,0
2.95537,4.17441,0.95075,4.66625,3.10997,0
2.95873,4.15858,0.94771,4.65274,3.11559,0
2.96209,4.14269,0.94471,4.63920,3.12120,0
2.96547,4.12674,0.94177,4.62561,3.12681,0
2.96885,4.11073,0.93888,4.61199,3.13242,0
2.97225,4.09467,0.93605,4.59832,3.13803,0
2.97566,4.07855,0.93326,4.58462,-3.13955,0
2.97907,4.06238,0.93053,4.57087,-3.13394,0
2.98250,4.04615,0.92784,4.55708,-3.12833,0
2.98593,4.02987,0.92521,4.54325,-3.12272,0
2.98938,4.01353,0.92263,4.52938,-3.11711,0
2.99284,3.99714,0.92010,4.51546,-3.11151,0
2.99631,3.98070,0.91762,4.50150,-3.10590,0
2.99978,3.96421,0.91519,4.48750,-3.10029,0
3.00327,3.94767,0.91281,4.47346,-3.09468,0
3.00677,3.93108,0.91048,4.45937,-3.08908,0
3.01029,3.91444,0.90819,4.44523,-3.08347,0
3.01381,3.89775,0.90596,4.43106,-3.07786,0
3.01734,3.88102,0.90377,4.41683,-3.07226,0
3.02089,3.86424,0.90164,4.40256,-3.06665,0
3.02444,3.84741,0.89955,4.38824,-3.06105,0
3.02801,3.83054,0.89750,4.37388,-3.05544,0
3.03159,3.81363,0.89551,4.35947,-3.04984,0
3.03519,3.79667,0.89356,4.34501,-3.04423,0
3.03879,3.77967,0.89166,4.33050,-3.03863,0
3.04241,3.76263,0.88980,4.31594,-3.03302,0
3.04603,3.74555,0.88799,4.30134,-3.02742,0
3.04967,3.72842,0.88622,4.28668,-3.02182,0
3.05333,3.71126,0.88450,4.27198,-3.01622,0
3.05699,3.69406,0.88283,4.25722,-3.01061,0
3.06067,3.67682,0.88120,4.24241,-3.00501,0
3.06436,3.65955,0.87962,4.22755,-2.99941,0
3.06807,3.64224,0.87807,4.21264,-2.99381,0
3.07178,3.62489,0.87658,4.19768,-2.98821,0
3.07551,3.60751,0.87512,4.18266,-2.98261,0
3.07926,3.59009,0.87371,4.16758,-2.97701,0
3.08302,3.57264,0.87235,4.15246,-2.97141,0
3.08679,3.55516,0.87102,4.13727,-2.96581,0
3.09057,3.53765,0.86974,4.12204,-2.96021,0
3.09437,3.52011,0.86850,4.10674,-2.95462,0
3.09818,3.50253,0.86730,4.09139,-2.94902,0
3.10201,3.48493,0.86615,4.07598,-2.94342,0
3.10585,3.46730,0.86503,4.06051,-2.93782,0
3.10971,3.44964,0.86396,4.04498,-2.93223,0
3.11358,3.43195,0.86292,4.02939,-2.92663,0
3.11747,3.41424,0.86193,4.01375,-2.92104,0
3.12137,3.39650,0.86098,3.99804,-2.91544,0
3.12529,3.37874,0.86006,3.98227,-2.90985,0
3.12922,3.36095,0.85919,3.96643,-2.90425,0
3.13317,3.34314,0.85835,3.95053,-2.89866,0
3.13713,3.32531,0.85756,3.93457,-2.89307,0
3.14111,3.30746,0.85680,3.91855,-2.88747,0
3.14511,3.28959,0.85608,3.90245,-2.88188,0
