time,x_pos,y_pos,velocity,rotation,action
0.00010,7.60137,7.69675,0.00000,-3.14159,0
0.00020,7.60137,7.69675,0.21737,-3.14159,0
0.07234,7.58802,7.69668,0.30741,-3.14028,0
0.12335,7.57470,7.69646,0.37650,-3.13778,0
0.16500,7.56142,7.69609,0.43474,-3.13477,0
0.20107,7.54816,7.69558,0.48606,-3.13146,0
0.23333,7.53494,7.69492,0.53245,-3.12794,0
0.26278,7.52176,7.69412,0.57511,-3.12428,0
0.29005,7.50860,7.69317,0.61482,-3.12050,0
0.31555,7.49548,7.69209,0.65211,-3.11662,0
0.33960,7.48239,7.69086,0.68739,-3.11267,0
0.36241,7.46933,7.68948,0.72094,-3.10865,0
0.38416,7.45631,7.68797,0.75300,-3.10458,0
0.40499,7.44331,7.68632,0.78374,-3.10045,0
0.42499,7.43035,7.68453,0.81333,-3.09629,0
0.44427,7.41742,7.68260,0.84187,-3.09208,0
0.46290,7.40452,7.68054,0.86948,-3.08784,0
0.48094,7.39165,7.67833,0.89624,-3.08357,0
0.49843,7.37881,7.67599,0.92223,-3.07927,0
0.51544,7.36600,7.67352,0.94750,-3.07495,0
0.53199,7.35323,7.67091,0.97211,-3.07060,0
0.54812,7.34049,7.66816,0.99612,-3.06623,0
0.56386,7.32777,7.66528,1.01956,-3.06184,0
0.57924,7.31509,7.66227,1.04248,-3.05743,0
0.59428,7.30244,7.65913,1.06490,-3.05300,0
0.60901,7.28981,7.65585,1.08686,-3.04855,0
0.62343,7.27722,7.65245,1.10838,-3.04409,0
0.63758,7.26466,7.64891,1.12949,-3.03961,0
0.65146,7.25213,7.64525,1.15022,-3.03512,0
0.66510,7.23963,7.64146,1.17058,-3.03062,0
0.67849,7.22716,7.63754,1.19059,-3.02610,0
0.69166,7.21471,7.63349,1.21027,-3.02157,0
0.70462,7.20230,7.62931,1.22964,-3.01704,0
0.71737,7.18992,7.62502,1.24870,-3.01249,0
0.72993,7.17756,7.62059,1.26748,-3.00793,0
0.74230,7.16524,7.61604,1.28599,-3.00336,0
0.75450,7.15294,7.61137,1.30423,-2.99878,0
0.76652,7.14068,7.60658,1.32222,-2.99419,0
0.77838,7.12844,7.60166,1.33997,-2.98959,0
0.79008,7.11623,7.59662,1.35748,-2.98498,0
0.80163,7.10405,7.59146,1.37478,-2.98037,0
0.81304,7.09190,7.58618,1.39185,-2.97575,0
0.82431,7.07977,7.58078,1.40873,-2.97112,0
0.83544,7.06768,7.57527,1.42540,-2.96649,0
0.84644,7.05561,7.56963,1.44188,-2.96184,0
0.85731,7.04358,7.56388,1.45817,-2.95719,0
0.86807,7.03156,7.55801,1.47428,-2.95254,0
0.87870,7.01958,7.55203,1.49022,-2.94788,0
0.88923,7.00763,7.54593,1.50599,-2.94321,0
0.89964,6.99570,7.53972,1.52160,-2.93853,0
0.90994,6.98380,7.53339,1.53705,-2.93386,0
0.92015,6.97193,7.52696,1.55234,-2.92917,0
0.93025,6.96008,7.52040,1.56749,-2.92448,0
0.94025,6.94826,7.51374,1.58249,-2.91978,0
0.95016,6.93647,7.50697,1.59735,-2.91508,0
0.95998,6.92471,7.50008,1.61207,-2.91038,0
0.96971,6.91297,7.49309,1.62666,-2.90567,0
0.97935,6.90126,7.48599,1.64112,-2.90095,0
0.98890,6.88957,7.47878,1.65545,-2.89624,0
0.99837,6.87792,7.47147,1.66966,-2.89151,0
1.00776,6.86628,7.46404,1.68375,-2.88679,0
1.01708,6.85468,7.45651,1.69772,-2.88205,0
1.02631,6.84310,7.44888,1.71158,-2.87732,0
1.03548,6.83155,7.44114,1.72533,-2.87258,0
1.04456,6.82002,7.43330,1.73897,-2.86783,0
1.05358,6.80852,7.42536,1.75250,-2.86309,0
1.06253,6.79704,7.41731,1.76593,-2.85834,0
1.07141,6.78559,7.40917,1.77926,-2.85358,0
1.08022,6.77417,7.40092,1.79249,-2.84882,0
1.08897,6.76277,7.39257,1.80562,-2.84406,0
1.09766,6.75139,7.38412,1.81866,-2.83930,0
1.10628,6.74004,7.37558,1.83160,-2.83453,0
1.11484,6.72872,7.36693,1.84446,-2.82976,0
1.12334,6.71742,7.35819,1.85722,-2.82498,0
1.13178,6.70614,7.34935,1.86990,-2.82020,0
1.14017,6.69489,7.34042,1.88249,-2.81542,0
1.14850,6.68366,7.33139,1.89500,-2.81064,0
1.15678,6.67246,7.32227,1.90742,-2.80585,0
1.16500,6.66129,7.31305,1.91977,-2.80106,0
1.17316,6.65013,7.30374,1.93204,-2.79627,0
1.18128,6.63900,7.29434,1.94423,-2.79148,0
1.18935,6.62790,7.28485,1.95634,-2.78668,0
1.19736,6.61682,7.27527,1.96838,-2.78188,0
1.20533,6.60576,7.26559,1.98035,-2.77707,0
1.21325,6.59472,7.25583,1.99224,-2.77227,0
1.22112,6.58371,7.24598,2.00000,-2.76746,0
1.22896,6.57272,7.23604,2.00000,-2.76264,0
1.23680,6.56176,7.22601,2.00000,-2.75779,0
1.24464,6.55082,7.21590,2.00000,-2.75291,0
1.25248,6.53990,7.20570,2.00000,-2.74800,0
1.26032,6.52900,7.19542,2.00000,-2.74305,0
1.26816,6.51813,7.18505,2.00000,-2.73808,0
1.27600,6.50728,7.17460,2.00000,-2.73307,0
1.28384,6.49645,7.16406,2.00000,-2.72804,0
1.29168,6.48565,7.15344,2.00000,-2.72297,0
1.29952,6.47486,7.14275,2.00000,-2.71787,0
1.30736,6.46410,7.13197,2.00000,-2.71274,0
1.31520,6.45336,7.12111,2.00000,-2.70758,0
1.32304,6.44265,7.11017,2.00000,-2.70239,0
1.33088,6.43195,7.09915,2.00000,-2.69717,0
1.33872,6.42128,7.08806,2.00000,-2.69192,0
1.34657,6.41063,7.07688,2.00000,-2.68664,0
1.35441,6.40000,7.06564,2.00000,-2.68132,0
1.36225,6.38939,7.05431,2.00000,-2.67598,0
1.37009,6.37880,7.04291,2.00000,-2.67060,0
1.37793,6.36823,7.03144,2.00000,-2.66519,0
1.38577,6.35769,7.01989,2.00000,-2.65976,0
1.39361,6.34716,7.00827,2.00000,-2.65429,0
1.40145,6.33666,6.99657,2.00000,-2.64879,0
1.40929,6.32617,6.98481,2.00000,-2.64326,0
1.41713,6.31571,6.97297,2.00000,-2.63770,0
1.42497,6.30527,6.96107,2.00000,-2.63211,0
1.43281,6.29484,6.94909,2.00000,-2.62649,0
1.44065,6.28444,6.93705,2.00000,-2.62083,0
1.44849,6.27406,6.92494,2.00000,-2.61799,0
1.45633,6.26370,6.91276,2.00000,-2.61796,0
1.46417,6.25336,6.90051,2.00000,-2.61790,0
1.47201,6.24303,6.88820,2.00000,-2.61780,0
1.47985,6.23273,6.87582,2.00000,-2.61768,0
1.48769,6.22245,6.86338,2.00000,-2.61753,0
1.49553,6.21218,6.85088,2.00000,-2.61734,0
1.50338,6.20194,6.83831,2.00000,-2.61713,0
1.51122,6.19171,6.82568,2.00000,-2.61688,0
1.51906,6.18150,6.81299,2.00000,-2.61660,0
1.52690,6.17132,6.80024,2.00000,-2.61629,0
1.53474,6.16115,6.78742,2.00000,-2.61595,0
1.54258,6.15100,6.77455,2.00000,-2.61558,0
1.55042,6.14087,6.76162,2.00000,-2.61518,0
1.55826,6.13075,6.74863,2.00000,-2.61475,0
1.56610,6.12066,6.73558,2.00000,-2.61429,0
1.57394,6.11058,6.72248,2.00000,-2.61379,0
1.58178,6.10052,6.70932,2.00000,-2.61327,0
1.58962,6.09048,6.69611,2.00000,-2.61271,0
1.59746,6.08046,6.68284,2.00000,-2.61213,0
1.60530,6.07045,6.66952,2.00000,-2.61151,0
1.61314,6.06046,6.65615,2.00000,-2.61086,0
1.62098,6.05049,6.64272,2.00000,-2.61018,0
1.62882,6.04054,6.62924,2.00000,-2.60947,0
1.63666,6.03061,6.61571,2.00000,-2.60873,0
1.64450,6.02069,6.60213,2.00000,-2.60796,0
1.65234,6.01079,6.58850,2.00000,-2.60716,0
1.66019,6.00090,6.57482,2.00000,-2.60633,0
1.66803,5.99103,6.56110,1.99224,-2.60546,0
1.67590,5.98118,6.54732,1.98035,-2.60457,0
1.68382,5.97135,6.53350,1.96838,-2.60363,0
1.69178,5.96153,6.51964,1.95634,-2.60266,0
1.69980,5.95173,6.50572,1.94423,-2.60165,0
1.70786,5.94194,6.49177,1.93204,-2.60060,0
1.71598,5.93218,6.47777,1.91977,-2.59951,0
1.72415,5.92242,6.46373,1.90742,-2.59838,0
1.73237,5.91268,6.44964,1.89500,-2.59721,0
1.74064,5.90296,6.43552,1.88249,-2.59600,0
1.74897,5.89326,6.42135,1.86990,-2.59474,0
1.75736,5.88357,6.40714,1.85722,-2.59344,0
1.76580,5.87389,6.39289,1.84446,-2.59210,0
1.77430,5.86423,6.37861,1.83160,-2.59071,0
1.78287,5.85459,6.36428,1.81866,-2.58927,0
1.79149,5.84496,6.34992,1.80562,-2.58779,0
1.80017,5.83534,6.33552,1.79249,-2.58626,0
1.80892,5.82575,6.32109,1.77926,-2.58468,0
1.81773,5.81616,6.30662,1.76593,-2.58305,0
1.82661,5.80659,6.29212,1.75250,-2.58137,0
1.83556,5.79703,6.27758,1.73897,-2.57963,0
1.84458,5.78749,6.26301,1.72533,-2.57784,0
1.85367,5.77797,6.24840,1.71158,-2.57600,0
1.86283,5.76845,6.23377,1.69772,-2.57409,0
1.87207,5.75896,6.21910,1.68375,-2.57213,0
1.88138,5.74947,6.20441,1.66966,-2.57011,0
1.89077,5.74000,6.18968,1.65545,-2.56803,0
1.90024,5.73054,6.17493,1.64112,-2.56589,0
1.90980,5.72110,6.16015,1.62666,-2.56368,0
1.91944,5.71167,6.14534,1.61207,-2.56141,0
1.92917,5.70225,6.13050,1.59735,-2.55906,0
1.93898,5.69285,6.11564,1.58249,-2.55665,0
1.94889,5.68345,6.10075,1.56749,-2.55417,0
1.95889,5.67408,6.08584,1.55234,-2.55161,0
1.96900,5.66471,6.07090,1.53705,-2.54898,0
1.97920,5.65536,6.05594,1.52160,-2.54627,0
1.98950,5.64602,6.04096,1.50599,-2.54348,0
1.99992,5.63669,6.02596,1.49022,-2.54060,0
2.01044,5.62738,6.01093,1.47428,-2.53764,0
2.02108,5.61808,5.99589,1.45817,-2.53459,0
2.03183,5.60879,5.98082,1.44188,-2.53145,0
2.04270,5.59951,5.96574,1.42540,-2.52821,0
2.05371,5.59024,5.95064,1.40873,-2.52488,0
2.06484,5.58099,5.93552,1.39185,-2.52145,0
2.07610,5.57174,5.92038,1.37478,-2.51791,0
2.08751,5.56251,5.90523,1.35748,-2.51426,0
2.09906,5.55329,5.89007,1.33997,-2.51050,0
2.11076,5.54409,5.87488,1.32222,-2.50662,0
2.12262,5.53489,5.85969,1.30423,-2.50262,0
2.13465,5.52570,5.84448,1.28599,-2.49849,0
2.14684,5.51653,5.82926,1.26748,-2.49423,0
2.15921,5.50736,5.81403,1.24870,-2.48983,0
2.17177,5.49821,5.79878,1.22964,-2.48529,0
2.18452,5.48907,5.78353,1.21027,-2.48059,0
2.19748,5.47994,5.76827,1.19059,-2.47574,0
2.21065,5.47081,5.75299,1.17058,-2.47072,0
2.22405,5.46170,5.73771,1.15022,-2.46552,0
2.23768,5.45260,5.72242,1.12949,-2.46014,0
2.25156,5.44351,5.70713,1.10838,-2.45457,0
2.26571,5.43443,5.69183,1.08686,-2.44879,0
2.28014,5.42536,5.67652,1.06490,-2.44279,0
2.29486,5.41630,5.66121,1.04248,-2.43656,0
2.30990,5.40725,5.64590,1.01956,-2.43009,0
2.32528,5.39820,5.63058,0.99612,-2.42335,0
2.34103,5.38917,5.61526,0.97211,-2.41633,0
2.35716,5.38015,5.59994,0.94750,-2.40900,0
2.37371,5.37113,5.58461,0.92223,-2.40135,0
2.39071,5.36213,5.56929,0.89624,-2.39335,0
2.40821,5.35313,5.55397,0.86948,-2.38497,0
2.42624,5.34414,5.53864,0.84187,-2.37616,0
2.44487,5.33516,5.52332,0.81333,-2.36690,0
2.46415,5.32619,5.50800,0.78374,-2.35713,0
2.48416,5.31723,5.49269,0.75300,-2.34679,0
2.50498,5.30828,5.47738,0.72094,-2.33581,0
2.52673,5.29933,5.46207,0.68739,-2.32412,0
2.54954,5.29039,5.44677,0.65211,-2.31160,0
2.57359,5.28146,5.43148,0.61482,-2.29812,0
2.59910,5.27254,5.41619,0.57511,-2.28350,0
2.62636,5.26363,5.40091,0.53245,-2.26752,0
2.65581,5.25472,5.38564,0.48606,-2.24983,0
2.68807,5.24582,5.37037,0.43474,-2.22996,0
2.72414,5.23693,5.35512,0.37650,-2.20712,0
2.76579,5.22805,5.33987,0.30741,-2.17994,0
2.81680,5.21917,5.32464,0.21737,-2.14546,0
2.88894,5.21030,5.30942,0.00000,-2.09447,36929
