time,x_pos,y_pos,velocity,rotation,action
0.00010,7.60354,4.06458,0.00000,-3.14159,16
0.00020,7.60354,4.06458,0.35467,-3.14159,0
0.04458,7.59176,4.06498,0.50158,-3.14159,0
0.07596,7.57981,4.06534,0.61431,-3.14159,0
0.10159,7.56769,4.06567,0.70934,-3.14159,0
0.12378,7.55541,4.06597,0.79307,-3.14159,0
0.14363,7.54297,4.06624,0.86876,-3.14159,0
0.16174,7.53037,4.06647,0.93837,-3.14159,0
0.17852,7.51761,4.06667,1.00316,-3.14159,0
0.19421,7.50470,4.06683,1.06401,-3.14159,0
0.20900,7.49165,4.06697,1.12157,-3.14159,0
0.22304,7.47844,4.06708,1.17631,-3.14159,0
0.23642,7.46509,4.06715,1.22862,-3.14159,0
0.24923,7.45159,4.06720,1.27878,-3.14159,0
0.26154,7.43796,4.06722,1.32706,-3.14159,0
0.27340,7.42419,4.06721,1.37363,-3.14159,0
0.28486,7.41028,4.06718,1.41868,-3.14159,0
0.29596,7.39624,4.06711,1.46235,-3.14159,0
0.30672,7.38207,4.06703,1.50474,-3.14159,0
0.31718,7.36778,4.06691,1.54597,-3.14159,0
0.32736,7.35336,4.06677,1.58614,-3.14159,0
0.33729,7.33882,4.06661,1.62531,-3.14159,0
0.34697,7.32416,4.06642,1.66355,-3.14159,0
0.35643,7.30939,4.06621,1.70094,-3.14159,0
0.36569,7.29450,4.06598,1.73752,-3.14159,0
0.37475,7.27950,4.06573,1.77335,-3.14159,0
0.38362,7.26439,4.06545,1.80847,-3.14159,0
0.39233,7.24918,4.06516,1.84292,-3.14159,0
0.40087,7.23386,4.06484,1.87674,-3.14159,0
0.40926,7.21844,4.06451,1.90996,-3.14159,0
0.41750,7.20292,4.06416,1.94261,-3.14159,0
0.42560,7.18731,4.06379,1.97472,-3.14159,0
0.43357,7.17161,4.06340,2.00632,-3.14159,0
0.44142,7.15582,4.06299,2.03743,-3.14159,0
0.44914,7.13994,4.06257,2.06807,-3.14159,0
0.45675,7.12397,4.06213,2.09826,-3.14159,0
0.46426,7.10792,4.06168,2.12802,-3.14159,0
0.47165,7.09180,4.06122,2.15738,-3.14159,0
0.47895,7.07559,4.06074,2.18634,-3.14159,0
0.48615,7.05931,4.06024,2.21492,-3.14159,0
0.49325,7.04296,4.05974,2.24313,-3.14159,0
0.50027,7.02654,4.05922,2.27100,-3.14159,0
0.50720,7.01006,4.05869,2.29853,-3.14159,0
0.51405,6.99351,4.05815,2.32573,-3.14159,0
0.52082,6.97690,4.05760,2.35262,-3.14159,0
0.52751,6.96023,4.05704,2.37920,-3.14159,0
0.53413,6.94350,4.05647,2.40549,-3.14159,0
0.54067,6.92672,4.05590,2.43150,-3.14159,0
0.54714,6.90989,4.05531,2.45723,-3.14159,0
0.55355,6.89302,4.05472,2.48270,-3.14159,0
0.55989,6.87610,4.05412,2.50790,-3.14159,0
0.56617,6.85913,4.05352,2.53286,-3.14159,0
0.57238,6.84212,4.05291,2.55757,-3.14159,0
0.57853,6.82508,4.05230,2.58204,-3.14159,0
0.58463,6.80800,4.05168,2.60629,-3.14159,0
0.59067,6.79089,4.05106,2.63031,-3.14159,0
0.59666,6.77375,4.05044,2.65411,-3.14159,0
0.60259,6.75659,4.04981,2.67771,-3.14159,0
0.60846,6.73940,4.04919,2.70109,-3.14159,0
0.61429,6.72218,4.04856,2.67771,-3.14159,0
0.62017,6.70495,4.04793,2.65411,-3.14159,0
0.62610,6.68770,4.04730,2.63031,-3.14159,0
0.63209,6.67044,4.04667,2.60629,-3.14159,0
0.63812,6.65316,4.04605,2.58204,-3.14159,0
0.64422,6.63588,4.04543,2.55757,-3.14159,0
0.65038,6.61859,4.04481,2.53286,-3.14159,0
0.65659,6.60130,4.04419,2.50790,-3.14159,0
0.66287,6.58401,4.04357,2.48270,-3.14159,0
0.66921,6.56672,4.04297,2.45723,-3.14159,0
0.67561,6.54943,4.04236,2.43150,-3.14159,0
0.68209,6.53215,4.04177,2.40549,-3.14159,0
0.68863,6.51488,4.04117,2.37920,-3.14159,0
0.69525,6.49762,4.04059,2.35262,-3.14159,0
0.70194,6.48038,4.04001,2.32573,-3.14159,0
0.70870,6.46316,4.03945,2.29853,-3.14159,0
0.71555,6.44595,4.03889,2.27100,-3.14159,0
0.72248,6.42877,4.03834,2.24313,-3.14159,0
0.72950,6.41161,4.03780,2.21492,-3.14159,0
0.73661,6.39448,4.03727,2.18634,-3.14159,0
0.74381,6.37739,4.03675,2.15738,-3.14159,0
0.75110,6.36032,4.03624,2.12802,-3.14159,0
0.75850,6.34329,4.03575,2.09826,-3.14159,0
0.76600,6.32630,4.03527,2.06807,-3.14159,0
0.77361,6.30936,4.03480,2.03743,-3.14159,0
0.78134,6.29245,4.03435,2.00632,-3.14159,0
0.78919,6.27559,4.03392,1.97472,-3.14159,0
0.79716,6.25878,4.03349,1.94261,-3.14159,0
0.80526,6.24203,4.03309,1.90996,-3.14159,0
0.81350,6.22532,4.03270,1.87674,-3.14159,0
0.82189,6.20868,4.03233,1.84292,-3.14159,0
0.83043,6.19209,4.03198,1.80847,-3.14159,0
0.83913,6.17556,4.03164,1.77335,-3.14159,0
0.84801,6.15910,4.03133,1.73752,-3.14159,0
0.85707,6.14271,4.03103,1.70094,-3.14159,0
0.86632,6.12639,4.03076,1.66355,-3.14159,0
0.87578,6.11014,4.03050,1.62531,-3.14159,0
0.88547,6.09397,4.03027,1.58614,-3.14159,0
0.89539,6.07787,4.03006,1.54597,-3.14159,0
0.90558,6.06185,4.02988,1.50474,-3.14159,0
0.91604,6.04592,4.02971,1.46235,-3.14159,0
0.92680,6.03007,4.02958,1.41868,-3.14159,0
0.93790,6.01432,4.02946,1.37363,-3.14159,0
0.94935,5.99865,4.02937,1.32706,-3.14159,0
0.96122,5.98308,4.02931,1.27878,-3.14159,0
0.97352,5.96760,4.02927,1.22862,-3.14159,0
0.98634,5.95222,4.02927,1.17631,-3.14159,0
0.99972,5.93694,4.02929,1.12157,-3.14159,0
1.01375,5.92177,4.02933,1.06401,-3.14159,0
1.02855,5.90670,4.02941,1.00316,-3.14159,0
1.04424,5.89175,4.02952,0.93837,-3.14159,0
1.06101,5.87690,4.02965,0.86876,-3.14159,0
1.07913,5.86217,4.02982,0.79307,-3.14159,0
1.09898,5.84756,4.03002,0.70934,-3.14159,0
1.12117,5.83307,4.03025,0.61431,-3.14159,0
1.14679,5.81870,4.03051,0.50158,-3.14159,0
1.17817,5.80446,4.03081,0.35467,-3.14159,0
1.26694,5.76250,4.03191,0.00000,-3.14159,36929
1.26704,5.76250,4.03191,0.35467,-3.14159,0
1.31114,5.77176,4.01565,0.50158,-3.14103,0
1.34233,5.78087,3.99943,0.61431,-3.13995,0
1.36780,5.78983,3.98327,0.70934,-3.13866,0
1.38985,5.79865,3.96717,0.79307,-3.13724,0
1.40957,5.80731,3.95112,0.86876,-3.13573,0
1.42758,5.81584,3.93512,0.93837,-3.13415,0
1.44425,5.82422,3.91917,1.00316,-3.13253,0
1.45985,5.83245,3.90328,1.06401,-3.13086,0
1.47455,5.84054,3.88744,1.12157,-3.12916,0
1.48849,5.84848,3.87165,1.17631,-3.12744,0
1.50179,5.85628,3.85592,1.22862,-3.12569,0
1.51453,5.86394,3.84024,1.27878,-3.12392,0
1.52676,5.87145,3.82461,1.32706,-3.12213,0
1.53855,5.87882,3.80903,1.37363,-3.12032,0
1.54993,5.88605,3.79351,1.41868,-3.11850,0
1.56096,5.89313,3.77804,1.46235,-3.11667,0
1.57166,5.90007,3.76262,1.50474,-3.11482,0
1.58205,5.90688,3.74725,1.54597,-3.11296,0
1.59217,5.91354,3.73194,1.58614,-3.11109,0
1.60204,5.92006,3.71667,1.62531,-3.10921,0
1.61166,5.92644,3.70146,1.66355,-3.10733,0
1.62106,5.93268,3.68631,1.70094,-3.10543,0
1.63026,5.93878,3.67120,1.73752,-3.10353,0
1.63926,5.94474,3.65615,1.77335,-3.10162,0
1.64809,5.95057,3.64114,1.80847,-3.09970,0
1.65674,5.95625,3.62619,1.84292,-3.09778,0
1.66522,5.96180,3.61129,1.87674,-3.09585,0
1.67356,5.96721,3.59645,1.90996,-3.09392,0
1.68175,5.97249,3.58165,1.94261,-3.09198,0
1.68980,5.97762,3.56691,1.97472,-3.09003,0
1.69772,5.98263,3.55221,2.00632,-3.08808,0
1.70552,5.98749,3.53757,2.03743,-3.08613,0
1.71320,5.99222,3.52298,2.06807,-3.08417,0
1.72076,5.99682,3.50844,2.09826,-3.08221,0
1.72822,6.00128,3.49396,2.12802,-3.08024,0
1.73557,6.00560,3.47952,2.15738,-3.07827,0
1.74282,6.00979,3.46514,2.18634,-3.07629,0
1.74998,6.01385,3.45080,2.21492,-3.07431,0
1.75704,6.01778,3.43652,2.24313,-3.07233,0
1.76401,6.02157,3.42229,2.27100,-3.07035,0
1.77090,6.02523,3.40810,2.29853,-3.06836,0
1.77771,6.02876,3.39397,2.32573,-3.06637,0
1.78443,6.03216,3.37989,2.35262,-3.06437,0
1.79108,6.03542,3.36586,2.37920,-3.06238,0
1.79766,6.03856,3.35188,2.40549,-3.06038,0
1.80416,6.04156,3.33795,2.43150,-3.05837,0
1.81059,6.04444,3.32407,2.45723,-3.05637,0
1.81696,6.04718,3.31025,2.48270,-3.05436,0
1.82326,6.04980,3.29647,2.50790,-3.05235,0
1.82950,6.05229,3.28274,2.53286,-3.05034,0
1.83567,6.05464,3.26906,2.55757,-3.04832,0
1.84179,6.05688,3.25544,2.58204,-3.04631,0
1.84785,6.05898,3.24186,2.60629,-3.04429,0
1.85385,6.06096,3.22833,2.63031,-3.04227,0
1.85980,6.06280,3.21485,2.65411,-3.04024,0
1.86569,6.06453,3.20143,2.67771,-3.03822,0
1.87153,6.06612,3.18805,2.70109,-3.03619,0
1.87733,6.06760,3.17472,2.72428,-3.03416,0
1.88307,6.06894,3.16144,2.74727,-3.03213,0
1.88876,6.07016,3.14821,2.77007,-3.03010,0
1.89441,6.07126,3.13503,2.79268,-3.02806,0
1.90001,6.07223,3.12190,2.81511,-3.02603,0
1.90557,6.07308,3.10882,2.83737,-3.02399,0
1.91108,6.07381,3.09579,2.85945,-3.02195,0
1.91655,6.07441,3.08280,2.88136,-3.01991,0
1.92198,6.07489,3.06987,2.90311,-3.01787,0
1.92737,6.07525,3.05698,2.92469,-3.01583,0
1.93272,6.07549,3.04415,2.94612,-3.01378,0
1.93803,6.07560,3.03136,2.96739,-3.01173,0
1.94330,6.07560,3.01862,2.98851,-3.00968,0
1.94853,6.07547,3.00593,3.00948,-3.00763,0
1.95373,6.07522,2.99329,3.03031,-3.00558,0
1.95889,6.07486,2.98070,3.05099,-3.00353,0
1.96402,6.07437,2.96816,3.07154,-3.00148,0
1.96911,6.07377,2.95566,3.09195,-2.99942,0
1.97417,6.07304,2.94322,3.11222,-2.99737,0
1.97920,6.07220,2.93082,3.13237,-2.99531,0
1.98419,6.07124,2.91847,3.15238,-2.99325,0
1.98916,6.07016,2.90617,3.17227,-2.99119,0
1.99409,6.06897,2.89392,3.19204,-2.98913,0
1.99899,6.06766,2.88171,3.21168,-2.98707,0
2.00386,6.06623,2.86955,3.23120,-2.98501,0
2.00870,6.06469,2.85745,3.25061,-2.98294,0
2.01351,6.06303,2.84538,3.26990,-2.98088,0
2.01830,6.06126,2.83337,3.28908,-2.97881,0
2.02305,6.05937,2.82141,3.30815,-2.97674,0
2.02778,6.05737,2.80949,3.32711,-2.97467,0
2.03248,6.05525,2.79762,3.34596,-2.97260,0
2.03716,6.05303,2.78580,3.36470,-2.97053,0
2.04181,6.05068,2.77402,3.38334,-2.96846,0
2.04643,6.04823,2.76229,3.40188,-2.96639,0
2.05103,6.04566,2.75061,3.42032,-2.96432,0
2.05560,6.04298,2.73898,3.43866,-2.96224,0
2.06015,6.04019,2.72740,3.45690,-2.96017,0
2.06468,6.03729,2.71586,3.47505,-2.95809,0
2.06918,6.03427,2.70437,3.49310,-2.95602,0
2.07366,6.03115,2.69292,3.51106,-2.95394,0
2.07811,6.02792,2.68152,3.52893,-2.95186,0
2.08255,6.02457,2.67017,3.54671,-2.94978,0
2.08696,6.02112,2.65887,3.56440,-2.94770,0
2.09135,6.01756,2.64761,3.58200,-2.94562,0
2.09571,6.01389,2.63640,3.59951,-2.94354,0
2.10006,6.01011,2.62524,3.61695,-2.94145,0
2.10438,6.00623,2.61412,3.63429,-2.93937,0
2.10869,6.00224,2.60305,3.65156,-2.93729,0
2.11297,5.99814,2.59203,3.66874,-2.93520,0
2.11724,5.99393,2.58105,3.68585,-2.93312,0
2.12148,5.98962,2.57012,3.70287,-2.93103,0
2.12570,5.98520,2.55924,3.71982,-2.92894,0
2.12991,5.98068,2.54840,3.73669,-2.92686,0
2.13410,5.97605,2.53761,3.75348,-2.92477,0
2.13826,5.97132,2.52686,3.77020,-2.92268,0
2.14241,5.96648,2.51616,3.78685,-2.92059,0
2.14654,5.96154,2.50551,3.80342,-2.91850,0
2.15066,5.95650,2.49490,3.81992,-2.91641,0
2.15475,5.95135,2.48434,3.83635,-2.91431,0
2.15883,5.94611,2.47382,3.85271,-2.91222,0
2.16289,5.94075,2.46335,3.86900,-2.91013,0
2.16693,5.93530,2.45292,3.88522,-2.90803,0
2.17096,5.92975,2.44254,3.90138,-2.90594,0
2.17497,5.92409,2.43221,3.91747,-2.90385,0
2.17896,5.91834,2.42192,3.93349,-2.90175,0
2.18294,5.91248,2.41167,3.94945,-2.89965,0
2.18690,5.90653,2.40147,3.96534,-2.89756,0
2.19085,5.90047,2.39132,3.98117,-2.89546,0
2.19477,5.89432,2.38121,3.99694,-2.89336,0
2.19869,5.88806,2.37115,4.01264,-2.89126,0
2.20259,5.88171,2.36113,4.02829,-2.88916,0
2.20647,5.87526,2.35116,4.04387,-2.88706,0
2.21034,5.86872,2.34123,4.05939,-2.88496,0
2.21419,5.86207,2.33135,4.07486,-2.88286,0
2.21803,5.85533,2.32151,4.09026,-2.88076,0
2.22186,5.84850,2.31171,4.10561,-2.87866,0
2.22567,5.84156,2.30196,4.12090,-2.87656,0
2.22946,5.83454,2.29226,4.13614,-2.87445,0
2.23324,5.82741,2.28260,4.15131,-2.87235,0
2.23701,5.82020,2.27298,4.16644,-2.87025,0
2.24077,5.81288,2.26341,4.18151,-2.86814,0
2.24451,5.80548,2.25388,4.19652,-2.86604,0
2.24824,5.79798,2.24440,4.21148,-2.86393,0
2.25195,5.79039,2.23496,4.22639,-2.86183,0
2.25565,5.78270,2.22556,4.24124,-2.85972,0
2.25934,5.77492,2.21621,4.25605,-2.85761,0
2.26302,5.76705,2.20690,4.27080,-2.85550,0
2.26668,5.75909,2.19764,4.28550,-2.85340,0
2.27033,5.75104,2.18842,4.30015,-2.85129,0
2.27397,5.74289,2.17924,4.31476,-2.84918,0
2.27759,5.73466,2.17011,4.32931,-2.84707,0
2.28120,5.72634,2.16102,4.34381,-2.84496,0
2.28481,5.71792,2.15197,4.35827,-2.84285,0
2.28840,5.70942,2.14297,4.37267,-2.84074,0
2.29197,5.70083,2.13401,4.38703,-2.83863,0
2.29554,5.69215,2.12510,4.40135,-2.83652,0
2.29909,5.68338,2.11623,4.41562,-2.83440,0
2.30264,5.67452,2.10740,4.42984,-2.83229,0
2.30617,5.66558,2.09861,4.44401,-2.83018,0
2.30969,5.65655,2.08987,4.45814,-2.82807,0
2.31320,5.64743,2.08117,4.47223,-2.82595,0
2.31669,5.63823,2.07251,4.48627,-2.82384,0
2.32018,5.62894,2.06390,4.50027,-2.82172,0
2.32366,5.61957,2.05533,4.51422,-2.81961,0
2.32712,5.61011,2.04680,4.52813,-2.81749,0
2.33058,5.60057,2.03831,4.54200,-2.81538,0
2.33402,5.59094,2.02987,4.55583,-2.81326,0
2.33745,5.58123,2.02147,4.56961,-2.81115,0
2.34088,5.57143,2.01311,4.58336,-2.80903,0
2.34429,5.56156,2.00480,4.59706,-2.80691,0
2.34769,5.55160,1.99652,4.61072,-2.80479,0
2.35109,5.54156,1.98829,4.62434,-2.80268,0
2.35447,5.53143,1.98010,4.63792,-2.80056,0
2.35784,5.52123,1.97196,4.65146,-2.79844,0
2.36121,5.51094,1.96385,4.66497,-2.79632,0
2.36456,5.50057,1.95579,4.67843,-2.79420,0
2.36790,5.49012,1.94777,4.69185,-2.79208,0
2.37124,5.47960,1.93979,4.70524,-2.78996,0
2.37456,5.46899,1.93185,4.71859,-2.78784,0
2.37788,5.45830,1.92396,4.73190,-2.78572,0
2.38118,5.44754,1.91610,4.74517,-2.78360,0
2.38448,5.43670,1.90829,4.75841,-2.78148,0
2.38777,5.42578,1.90052,4.77161,-2.77936,0
2.39104,5.41478,1.89279,4.78477,-2.77723,0
2.39431,5.40370,1.88510,4.79790,-2.77511,0
2.39757,5.39255,1.87746,4.81099,-2.77299,0
2.40083,5.38132,1.86985,4.82404,-2.77087,0
2.40407,5.37002,1.86229,4.83706,-2.76874,0
2.40730,5.35864,1.85477,4.85005,-2.76662,0
2.41053,5.34718,1.84728,4.86300,-2.76449,0
2.41375,5.33565,1.83984,4.87592,-2.76237,0
2.41695,5.32405,1.83244,4.88880,-2.76024,0
2.42015,5.31237,1.82508,4.90165,-2.75812,0
2.42334,5.30062,1.81777,4.91446,-2.75599,0
2.42653,5.28879,1.81049,4.92724,-2.75387,0
2.42970,5.27690,1.80325,4.93999,-2.75174,0
2.43287,5.26493,1.79606,4.95271,-2.74962,0
2.43603,5.25288,1.78890,4.96539,-2.74749,0
2.43918,5.24077,1.78178,4.97804,-2.74536,0
2.44232,5.22858,1.77471,4.99066,-2.74324,0
2.44546,5.21633,1.76768,5.00000,-2.74111,0
2.44858,5.20400,1.76068,5.00000,-2.73898,0
2.45171,5.19161,1.75373,5.00000,-2.73684,0
2.45484,5.17914,1.74681,5.00000,-2.73470,0
2.45797,5.16660,1.73994,5.00000,-2.73256,0
2.46110,5.15400,1.73311,5.00000,-2.73041,0
2.46423,5.14133,1.72631,5.00000,-2.72825,0
2.46736,5.12859,1.71956,5.00000,-2.72609,0
2.47048,5.11578,1.71284,5.00000,-2.72392,0
2.47361,5.10290,1.70617,5.00000,-2.72174,0
2.47674,5.08996,1.69953,5.00000,-2.71956,0
2.47987,5.07695,1.69294,5.00000,-2.71738,0
2.48300,5.06387,1.68638,5.00000,-2.71519,0
2.48613,5.05073,1.67987,5.00000,-2.71299,0
2.48926,5.03752,1.67339,5.00000,-2.71079,0
2.49238,5.02425,1.66695,5.00000,-2.70858,0
2.49551,5.01092,1.66055,5.00000,-2.70636,0
2.49864,4.99752,1.65420,5.00000,-2.70414,0
2.50177,4.98405,1.64788,5.00000,-2.70192,0
2.50490,4.97052,1.64159,5.00000,-2.69969,0
2.50803,4.95693,1.63535,5.00000,-2.69745,0
2.51116,4.94328,1.62915,5.00000,-2.69521,0
2.51428,4.92956,1.62299,5.00000,-2.69296,0
2.51741,4.91579,1.61686,5.00000,-2.69071,0
2.52054,4.90195,1.61077,5.00000,-2.68845,0
2.52367,4.88805,1.60473,5.00000,-2.68619,0
2.52680,4.87409,1.59872,5.00000,-2.68392,0
2.52993,4.86006,1.59275,5.00000,-2.68164,0
2.53306,4.84598,1.58681,5.00000,-2.67936,0
2.53618,4.83184,1.58092,5.00000,-2.67708,0
2.53931,4.81764,1.57506,5.00000,-2.67480,0
2.54244,4.80338,1.56925,5.00000,-2.67253,0
2.54557,4.78907,1.56347,5.00000,-2.67026,0
2.54870,4.77469,1.55773,5.00000,-2.66800,0
2.55183,4.76026,1.55202,5.00000,-2.66575,0
2.55496,4.74577,1.54636,5.00000,-2.66350,0
2.55808,4.73123,1.54073,5.00000,-2.66125,0
2.56121,4.71662,1.53514,5.00000,-2.65902,0
2.56434,4.70196,1.52959,5.00000,-2.65678,0
2.56747,4.68725,1.52408,5.00000,-2.65456,0
2.57060,4.67248,1.51860,5.00000,-2.65234,0
2.57373,4.65766,1.51316,5.00000,-2.65012,0
2.57686,4.64278,1.50776,4.99066,-2.64791,0
2.57999,4.62785,1.50240,4.97804,-2.64570,0
2.58313,4.61286,1.49707,4.96539,-2.64350,0
2.58628,4.59782,1.49179,4.95271,-2.64129,0
2.58944,4.58273,1.48653,4.93999,-2.63908,0
2.59261,4.56758,1.48132,4.92724,-2.63687,0
2.59578,4.55239,1.47614,4.91446,-2.63466,0
2.59897,4.53714,1.47100,4.90165,-2.63246,0
2.60216,4.52184,1.46590,4.88880,-2.63025,0
2.60536,4.50649,1.46084,4.87592,-2.62804,0
2.60857,4.49109,1.45581,4.86300,-2.62583,0
2.61178,4.47564,1.45081,4.85005,-2.62363,0
2.61501,4.46013,1.44586,4.83706,-2.62142,0
2.61824,4.44458,1.44094,4.82404,-2.61921,0
2.62148,4.42898,1.43606,4.81099,-2.61701,0
2.62474,4.41334,1.43121,4.79790,-2.61480,0
2.62800,4.39764,1.42640,4.78477,-2.61259,0
2.63127,4.38190,1.42163,4.77161,-2.61039,0
2.63454,4.36611,1.41689,4.75841,-2.60818,0
2.63783,4.35027,1.41219,4.74517,-2.60597,0
2.64113,4.33438,1.40753,4.73190,-2.60377,0
2.64443,4.31845,1.40290,4.71859,-2.60156,0
2.64775,4.30247,1.39831,4.70524,-2.59936,0
2.65107,4.28645,1.39375,4.69185,-2.59715,0
2.65441,4.27039,1.38923,4.67843,-2.59494,0
2.65775,4.25427,1.38475,4.66497,-2.59274,0
2.66111,4.23812,1.38030,4.65146,-2.59053,0
2.66447,4.22192,1.37589,4.63792,-2.58833,0
2.66784,4.20567,1.37151,4.62434,-2.58612,0
2.67122,4.18939,1.36717,4.61072,-2.58392,0
2.67462,4.17306,1.36286,4.59706,-2.58171,0
2.67802,4.15669,1.35859,4.58336,-2.57951,0
2.68143,4.14027,1.35436,4.56961,-2.57730,0
2.68486,4.12382,1.35016,4.55583,-2.57510,0
2.68829,4.10732,1.34600,4.54200,-2.57289,0
2.69173,4.09079,1.34187,4.52813,-2.57069,0
2.69519,4.07421,1.33777,4.51422,-2.56848,0
2.69865,4.05759,1.33371,4.50027,-2.56628,0
2.70213,4.04094,1.32969,4.48627,-2.56408,0
2.70562,4.02424,1.32570,4.47223,-2.56187,0
2.70912,4.00751,1.32175,4.45814,-2.55967,0
2.71262,3.99073,1.31783,4.44401,-2.55746,0
2.71614,3.97392,1.31394,4.42984,-2.55526,0
2.71968,3.95707,1.31009,4.41562,-2.55306,0
2.72322,3.94019,1.30628,4.40135,-2.55085,0
2.72677,3.92327,1.30250,4.38703,-2.54865,0
2.73034,3.90631,1.29875,4.37267,-2.54645,0
2.73392,3.88931,1.29504,4.35827,-2.54424,0
2.73750,3.87228,1.29136,4.34381,-2.54204,0
2.74111,3.85522,1.28772,4.32931,-2.53984,0
2.74472,3.83812,1.28411,4.31476,-2.53764,0
2.74835,3.82098,1.28054,4.30015,-2.53543,0
2.75198,3.80381,1.27699,4.28550,-2.53323,0
2.75563,3.78661,1.27349,4.27080,-2.53103,0
2.75930,3.76937,1.27002,4.25605,-2.52883,0
2.76297,3.75210,1.26658,4.24124,-2.52662,0
2.76666,3.73480,1.26317,4.22639,-2.52442,0
2.77036,3.71747,1.25980,4.21148,-2.52222,0
2.77408,3.70010,1.25646,4.19652,-2.52002,0
2.77780,3.68271,1.25316,4.18151,-2.51782,0
2.78154,3.66528,1.24989,4.16644,-2.51562,0
2.78530,3.64782,1.24665,4.15131,-2.51342,0
2.78907,3.63033,1.24345,4.13614,-2.51122,0
2.79285,3.61282,1.24028,4.12090,-2.50901,0
2.79665,3.59527,1.23714,4.10561,-2.50681,0
2.80046,3.57769,1.23404,4.09026,-2.50461,0
2.80428,3.56009,1.23096,4.07486,-2.50241,0
2.80812,3.54245,1.22793,4.05939,-2.50021,0
2.81197,3.52479,1.22492,4.04387,-2.49801,0
2.81584,3.50710,1.22195,4.02829,-2.49581,0
2.81972,3.48939,1.21901,4.01264,-2.49361,0
2.82362,3.47165,1.21611,3.99694,-2.49142,0
2.82754,3.45388,1.21323,3.98117,-2.48922,0
2.83147,3.43608,1.21039,3.96534,-2.48702,0
2.83541,3.41827,1.20758,3.94945,-2.48482,0
2.83937,3.40042,1.20481,3.93349,-2.48262,0
2.84335,3.38255,1.20206,3.91747,-2.48042,0
2.84734,3.36466,1.19935,3.90138,-2.47822,0
2.85135,3.34674,1.19668,3.88522,-2.47602,0
2.85538,3.32880,1.19403,3.86900,-2.47383,0
2.85942,3.31083,1.19142,3.85271,-2.47163,0
2.86348,3.29285,1.18883,3.83635,-2.46943,0
2.86756,3.27484,1.18628,3.81992,-2.46723,0
2.87165,3.25681,1.18377,3.80342,-2.46504,0
2.87577,3.23875,1.18128,3.78685,-2.46284,0
2.87990,3.22068,1.17883,3.77020,-2.46064,0
2.88405,3.20259,1.17641,3.75348,-2.45845,0
2.88822,3.18447,1.17402,3.73669,-2.45625,0
2.89240,3.16634,1.17166,3.71982,-2.45405,0
2.89661,3.14818,1.16933,3.70287,-2.45186,0
2.90083,3.13001,1.16703,3.68585,-2.44966,0
2.90508,3.11181,1.16477,3.66874,-2.44747,0
2.90934,3.09360,1.16254,3.65156,-2.44527,0
2.91362,3.07538,1.16034,3.63429,-2.44308,0
2.91793,3.05713,1.15817,3.61695,-2.44088,0
2.92225,3.03886,1.15603,3.59951,-2.43869,0
2.92660,3.02058,1.15392,3.58200,-2.43649,0
2.93097,3.00229,1.15184,3.56440,-2.43430,0
2.93535,2.98397,1.14980,3.54671,-2.43211,0
2.93977,2.96564,1.14778,3.52893,-2.42991,0
2.94420,2.94730,1.14580,3.51106,-2.42772,0
2.94865,2.92894,1.14385,3.49310,-2.42553,0
2.95313,2.91057,1.14193,3.47505,-2.42333,0
2.95763,2.89218,1.14003,3.45690,-2.42114,0
2.96216,2.87378,1.13817,3.43866,-2.41895,0
2.96671,2.85536,1.13634,3.42032,-2.41676,0
2.97128,2.83694,1.13454,3.40188,-2.41457,0
