time,x_pos,y_pos,velocity,rotation,action
0.00010,7.57500,4.02500,0.00000,-3.14159,16
0.00020,7.57500,4.02500,0.35469,-3.14159,0
0.04433,7.55901,4.02501,0.50161,-3.14159,0
0.07554,7.54317,4.02505,0.61435,-3.14159,0
0.10102,7.52748,4.02511,0.70939,-3.14159,0
0.12308,7.51195,4.02519,0.79312,-3.14159,0
0.14282,7.49655,4.02530,0.86882,-3.14159,0
0.16084,7.48129,4.02543,0.93843,-3.14159,0
0.17752,7.46617,4.02558,1.00323,-3.14159,0
0.19312,7.45118,4.02575,1.06408,-3.14159,0
0.20783,7.43632,4.02595,1.12164,-3.14159,0
0.22179,7.42158,4.02616,1.17639,-3.14159,0
0.23510,7.40695,4.02640,1.22870,-3.14159,0
0.24784,7.39245,4.02666,1.27887,-3.14159,0
0.26008,7.37805,4.02694,1.32714,-3.14159,0
0.27187,7.36376,4.02723,1.37373,-3.14159,0
0.28327,7.34957,4.02755,1.41878,-3.14159,0
0.29430,7.33548,4.02788,1.46244,-3.14159,0
0.30500,7.32149,4.02823,1.50484,-3.14159,0
0.31540,7.30758,4.02860,1.54608,-3.14159,0
0.32553,7.29376,4.02899,1.58624,-3.14159,0
0.33540,7.28002,4.02940,1.62541,-3.14159,0
0.34503,7.26637,4.02982,1.66366,-3.14159,0
0.35444,7.25278,4.03026,1.70105,-3.14159,0
0.36364,7.23927,4.03071,1.73764,-3.14159,0
0.37265,7.22582,4.03118,1.77347,-3.14159,0
0.38147,7.21243,4.03167,1.80859,-3.14159,0
0.39013,7.19910,4.03217,1.84305,-3.14159,0
0.39862,7.18583,4.03268,1.87687,-3.14159,0
0.40696,7.17260,4.03321,1.91009,-3.14159,0
0.41516,7.15942,4.03376,1.94274,-3.14159,0
0.42322,7.14628,4.03431,1.97485,-3.14159,0
0.43114,7.13318,4.03488,2.00645,-3.14159,0
0.43894,7.12012,4.03546,2.03756,-3.14159,0
0.44663,7.10708,4.03605,2.06821,-3.14159,0
0.45419,7.09406,4.03666,2.09840,-3.14159,0
0.46165,7.08107,4.03728,2.12817,-3.14159,0
0.46901,7.06810,4.03790,2.15752,-3.14159,0
0.47626,7.05514,4.03854,2.18648,-3.14159,0
0.48342,7.04218,4.03919,2.21506,-3.14159,0
0.49049,7.02924,4.03985,2.24328,-3.14159,0
0.49747,7.01629,4.04051,2.27115,-3.14159,0
0.50436,7.00334,4.04119,2.29868,-3.14159,0
0.51117,6.99038,4.04188,2.32589,-3.14159,0
0.51790,6.97741,4.04257,2.35278,-3.14159,0
0.52455,6.96443,4.04327,2.37936,-3.14159,0
0.53113,6.95143,4.04398,2.40565,-3.14159,0
0.53764,6.93840,4.04469,2.43166,-3.14159,0
0.54408,6.92535,4.04542,2.45739,-3.14159,0
0.55045,6.91226,4.04614,2.48286,-3.14159,0
0.55675,6.89914,4.04688,2.50807,-3.14159,0
0.56299,6.88598,4.04762,2.53302,-3.14159,0
0.56917,6.87277,4.04836,2.55774,-3.14159,0
0.57529,6.85952,4.04911,2.58221,-3.14159,0
0.58136,6.84622,4.04987,2.60646,-3.14159,0
0.58736,6.83286,4.05062,2.63048,-3.14159,0
0.59331,6.81944,4.05139,2.63048,-3.14159,0
0.59926,6.80595,4.05215,2.60646,-3.14159,0
0.60527,6.79240,4.05292,2.58221,-3.14159,0
0.61133,6.77877,4.05369,2.55774,-3.14159,0
0.61745,6.76507,4.05446,2.53302,-3.14159,0
0.62363,6.75129,4.05523,2.50807,-3.14159,0
0.62987,6.73743,4.05601,2.48286,-3.14159,0
0.63618,6.72347,4.05678,2.45739,-3.14159,0
0.64255,6.70942,4.05756,2.43166,-3.14159,0
0.64898,6.69528,4.05833,2.40565,-3.14159,0
0.65549,6.68104,4.05911,2.37936,-3.14159,0
0.66207,6.66669,4.05989,2.35278,-3.14159,0
0.66872,6.65223,4.06066,2.32589,-3.14159,0
0.67545,6.63766,4.06143,2.29868,-3.14159,0
0.68226,6.62297,4.06220,2.27115,-3.14159,0
0.68915,6.60816,4.06297,2.24328,-3.14159,0
0.69613,6.59323,4.06373,2.21506,-3.14159,0
0.70320,6.57817,4.06450,2.18648,-3.14159,0
0.71036,6.56297,4.06526,2.15752,-3.14159,0
0.71761,6.54764,4.06601,2.12817,-3.14159,0
0.72497,6.53216,4.06676,2.09840,-3.14159,0
0.73243,6.51654,4.06751,2.06821,-3.14159,0
0.74000,6.50077,4.06825,2.03756,-3.14159,0
0.74768,6.48485,4.06898,2.00645,-3.14159,0
0.75548,6.46877,4.06971,1.97485,-3.14159,0
0.76341,6.45253,4.07044,1.94274,-3.14159,0
0.77147,6.43612,4.07115,1.91009,-3.14159,0
0.77966,6.41955,4.07187,1.87687,-3.14159,0
0.78800,6.40279,4.07257,1.84305,-3.14159,0
0.79649,6.38587,4.07326,1.80859,-3.14159,0
0.80515,6.36875,4.07395,1.77347,-3.14159,0
0.81398,6.35146,4.07463,1.73764,-3.14159,0
0.82298,6.33397,4.07530,1.70105,-3.14159,0
0.83219,6.31629,4.07596,1.66366,-3.14159,0
0.84160,6.29841,4.07661,1.62541,-3.14159,0
0.85123,6.28033,4.07725,1.58624,-3.14159,0
0.86109,6.26204,4.07788,1.54608,-3.14159,0
0.87122,6.24355,4.07850,1.50484,-3.14159,0
0.88162,6.22483,4.07910,1.46244,-3.14159,0
0.89233,6.20590,4.07970,1.41878,-3.14159,0
0.90336,6.18675,4.08029,1.37373,-3.14159,0
0.91475,6.16737,4.08086,1.32714,-3.14159,0
0.92655,6.14776,4.08142,1.27887,-3.14159,0
0.93879,6.12791,4.08196,1.22870,-3.14159,0
0.95153,6.10783,4.08249,1.17639,-3.14159,0
0.96483,6.08750,4.08301,1.12164,-3.14159,0
0.97879,6.06693,4.08352,1.06408,-3.14159,0
0.99350,6.04610,4.08400,1.00323,-3.14159,0
1.00910,6.02502,4.08448,0.93843,-3.14159,0
1.02578,6.00368,4.08494,0.86882,-3.14159,0
1.04380,5.98208,4.08538,0.79312,-3.14159,0
1.06354,5.96021,4.08581,0.70939,-3.14159,0
1.08560,5.93807,4.08622,0.61435,-3.14159,0
1.11108,5.91566,4.08661,0.50161,-3.14159,0
1.14229,5.89296,4.08698,0.35469,-3.14159,0
1.23056,5.82316,4.08800,0.00000,-3.14159,36996
1.23066,5.82316,4.08800,0.35469,-3.14159,0
1.27479,5.83254,4.07151,0.50161,-3.14102,0
1.30600,5.84176,4.05510,0.61435,-3.13993,0
1.33148,5.85083,4.03874,0.70939,-3.13861,0
1.35354,5.85974,4.02246,0.79312,-3.13717,0
1.37328,5.86850,4.00624,0.86882,-3.13564,0
1.39130,5.87710,3.99008,0.93843,-3.13404,0
1.40798,5.88554,3.97399,1.00323,-3.13239,0
1.42358,5.89383,3.95797,1.06408,-3.13070,0
1.43830,5.90197,3.94201,1.12164,-3.12897,0
1.45225,5.90995,3.92612,1.17639,-3.12722,0
1.46556,5.91778,3.91029,1.22870,-3.12544,0
1.47830,5.92546,3.89452,1.27887,-3.12364,0
1.49054,5.93299,3.87882,1.32714,-3.12183,0
1.50233,5.94036,3.86319,1.37373,-3.11999,0
1.51373,5.94758,3.84762,1.41878,-3.11814,0
1.52476,5.95465,3.83211,1.46244,-3.11628,0
1.53547,5.96157,3.81666,1.50484,-3.11441,0
1.54587,5.96834,3.80128,1.54608,-3.11252,0
1.55599,5.97496,3.78597,1.58624,-3.11062,0
1.56586,5.98143,3.77071,1.62541,-3.10871,0
1.57549,5.98776,3.75552,1.66366,-3.10680,0
1.58490,5.99393,3.74039,1.70105,-3.10487,0
1.59411,5.99996,3.72533,1.73764,-3.10294,0
1.60311,6.00584,3.71033,1.77347,-3.10100,0
1.61194,6.01157,3.69539,1.80859,-3.09906,0
1.62060,6.01716,3.68051,1.84305,-3.09710,0
1.62909,6.02260,3.66569,1.87687,-3.09515,0
1.63743,6.02789,3.65094,1.91009,-3.09318,0
1.64563,6.03304,3.63625,1.94274,-3.09121,0
1.65368,6.03804,3.62162,1.97485,-3.08924,0
1.66161,6.04290,3.60705,2.00645,-3.08726,0
1.66941,6.04762,3.59254,2.03756,-3.08527,0
1.67710,6.05219,3.57810,2.06821,-3.08328,0
1.68466,6.05662,3.56371,2.09840,-3.08129,0
1.69212,6.06091,3.54939,2.12817,-3.07929,0
1.69948,6.06506,3.53512,2.15752,-3.07729,0
1.70674,6.06906,3.52092,2.18648,-3.07528,0
1.71389,6.07292,3.50678,2.21506,-3.07328,0
1.72096,6.07665,3.49270,2.24328,-3.07126,0
1.72794,6.08023,3.47868,2.27115,-3.06925,0
1.73483,6.08367,3.46471,2.29868,-3.06723,0
1.74164,6.08697,3.45081,2.32589,-3.06521,0
1.74837,6.09014,3.43697,2.35278,-3.06318,0
1.75503,6.09316,3.42318,2.37936,-3.06115,0
1.76161,6.09605,3.40946,2.40565,-3.05912,0
1.76811,6.09880,3.39579,2.43166,-3.05709,0
1.77455,6.10141,3.38219,2.45739,-3.05505,0
1.78092,6.10389,3.36864,2.48286,-3.05301,0
1.78723,6.10623,3.35515,2.50807,-3.05097,0
1.79347,6.10843,3.34172,2.53302,-3.04893,0
1.79965,6.11050,3.32835,2.55774,-3.04688,0
1.80577,6.11244,3.31503,2.58221,-3.04484,0
1.81183,6.11424,3.30178,2.60646,-3.04279,0
1.81783,6.11590,3.28858,2.63048,-3.04073,0
1.82379,6.11743,3.27544,2.65429,-3.03868,0
1.82968,6.11883,3.26236,2.67788,-3.03662,0
1.83553,6.12010,3.24933,2.70127,-3.03456,0
1.84132,6.12123,3.23636,2.72446,-3.03250,0
1.84707,6.12223,3.22345,2.74745,-3.03044,0
1.85277,6.12311,3.21059,2.77025,-3.02838,0
1.85842,6.12385,3.19780,2.79287,-3.02631,0
1.86402,6.12446,3.18505,2.81530,-3.02425,0
1.86958,6.12494,3.17237,2.83755,-3.02218,0
1.87510,6.12529,3.15974,2.85964,-3.02011,0
1.88057,6.12551,3.14716,2.88155,-3.01803,0
1.88601,6.12560,3.13465,2.90330,-3.01596,0
1.89140,6.12556,3.12219,2.92488,-3.01388,0
1.89675,6.12540,3.10978,2.94631,-3.01181,0
1.90206,6.12511,3.09743,2.96759,-3.00973,0
1.90734,6.12469,3.08513,2.98871,-3.00765,0
1.91258,6.12415,3.07289,3.00968,-3.00557,0
1.91778,6.12348,3.06071,3.03051,-3.00348,0
1.92294,6.12268,3.04857,3.05120,-3.00140,0
1.92807,6.12176,3.03650,3.07174,-2.99932,0
1.93317,6.12072,3.02448,3.09215,-2.99723,0
1.93823,6.11955,3.01251,3.11243,-2.99514,0
1.94326,6.11825,3.00059,3.13258,-2.99305,0
1.94826,6.11684,2.98873,3.15259,-2.99096,0
1.95322,6.11530,2.97693,3.17248,-2.98887,0
1.95816,6.11364,2.96518,3.19225,-2.98678,0
1.96306,6.11185,2.95348,3.21189,-2.98468,0
1.96794,6.10995,2.94183,3.23142,-2.98259,0
1.97278,6.10792,2.93024,3.25083,-2.98049,0
1.97760,6.10577,2.91870,3.27012,-2.97840,0
1.98238,6.10351,2.90721,3.28930,-2.97630,0
1.98714,6.10112,2.89578,3.30837,-2.97420,0
1.99187,6.09861,2.88439,3.32733,-2.97210,0
1.99658,6.09599,2.87306,3.34618,-2.97000,0
2.00126,6.09324,2.86179,3.36493,-2.96789,0
2.00591,6.09038,2.85056,3.38357,-2.96579,0
2.01054,6.08741,2.83939,3.40211,-2.96369,0
2.01514,6.08431,2.82826,3.42055,-2.96158,0
2.01971,6.08110,2.81719,3.43889,-2.95948,0
2.02427,6.07777,2.80617,3.45713,-2.95737,0
2.02879,6.07432,2.79521,3.47528,-2.95526,0
2.03330,6.07076,2.78429,3.49333,-2.95315,0
2.03778,6.06709,2.77342,3.51129,-2.95104,0
2.04224,6.06330,2.76261,3.52916,-2.94893,0
2.04667,6.05940,2.75184,3.54694,-2.94682,0
2.05109,6.05538,2.74113,3.56463,-2.94471,0
2.05548,6.05125,2.73046,3.58224,-2.94259,0
2.05985,6.04701,2.71985,3.59975,-2.94048,0
2.06420,6.04266,2.70928,3.61719,-2.93837,0
2.06852,6.03819,2.69877,3.63454,-2.93625,0
2.07283,6.03362,2.68830,3.65180,-2.93413,0
2.07712,6.02893,2.67789,3.66899,-2.93202,0
2.08138,6.02413,2.66752,3.68609,-2.92990,0
2.08563,6.01922,2.65720,3.70312,-2.92778,0
2.08986,6.01420,2.64693,3.72007,-2.92566,0
2.09407,6.00908,2.63671,3.73694,-2.92354,0
2.09825,6.00384,2.62654,3.75373,-2.92142,0
2.10242,5.99850,2.61642,3.77045,-2.91930,0
2.10658,5.99305,2.60634,3.78710,-2.91718,0
2.11071,5.98749,2.59631,3.80367,-2.91505,0
2.11483,5.98182,2.58633,3.82018,-2.91293,0
2.11892,5.97605,2.57640,3.83661,-2.91081,0
2.12300,5.97018,2.56652,3.85297,-2.90868,0
2.12707,5.96419,2.55668,3.86926,-2.90656,0
2.13111,5.95811,2.54690,3.88548,-2.90443,0
2.13514,5.95191,2.53715,3.90164,-2.90230,0
2.13915,5.94562,2.52746,3.91773,-2.90018,0
2.14315,5.93922,2.51781,3.93375,-2.89805,0
2.14713,5.93272,2.50821,3.94971,-2.89592,0
2.15109,5.92611,2.49865,3.96560,-2.89379,0
2.15504,5.91940,2.48915,3.98143,-2.89166,0
2.15897,5.91259,2.47968,3.99720,-2.88953,0
2.16289,5.90568,2.47027,4.01291,-2.88740,0
2.16679,5.89867,2.46090,4.02855,-2.88527,0
2.17067,5.89155,2.45157,4.04414,-2.88314,0
2.17454,5.88434,2.44229,4.05966,-2.88100,0
2.17840,5.87703,2.43306,4.07513,-2.87887,0
2.18224,5.86961,2.42387,4.09053,-2.87674,0
2.18607,5.86210,2.41472,4.10588,-2.87460,0
2.18988,5.85449,2.40563,4.12118,-2.87247,0
2.19368,5.84679,2.39657,4.13641,-2.87033,0
2.19746,5.83898,2.38756,4.15159,-2.86820,0
2.20123,5.83108,2.37860,4.16672,-2.86606,0
2.20499,5.82308,2.36967,4.18179,-2.86392,0
2.20873,5.81499,2.36080,4.19680,-2.86178,0
2.21247,5.80680,2.35196,4.21176,-2.85965,0
2.21618,5.79852,2.34317,4.22667,-2.85751,0
2.21989,5.79013,2.33443,4.24153,-2.85537,0
2.22358,5.78166,2.32573,4.25633,-2.85323,0
2.22725,5.77309,2.31707,4.27109,-2.85109,0
2.23092,5.76443,2.30845,4.28579,-2.84895,0
2.23457,5.75568,2.29988,4.30044,-2.84681,0
2.23821,5.74683,2.29135,4.31504,-2.84467,0
2.24184,5.73789,2.28286,4.32960,-2.84253,0
2.24546,5.72886,2.27441,4.34410,-2.84038,0
2.24906,5.71974,2.26601,4.35856,-2.83824,0
2.25265,5.71053,2.25765,4.37297,-2.83610,0
2.25623,5.70122,2.24933,4.38733,-2.83395,0
2.25980,5.69183,2.24105,4.40164,-2.83181,0
2.26335,5.68235,2.23281,4.41591,-2.82966,0
2.26690,5.67278,2.22462,4.43013,-2.82752,0
2.27043,5.66312,2.21647,4.44431,-2.82537,0
2.27395,5.65337,2.20836,4.45844,-2.82323,0
2.27747,5.64354,2.20028,4.47253,-2.82108,0
2.28097,5.63361,2.19225,4.48657,-2.81894,0
2.28446,5.62360,2.18426,4.50057,-2.81679,0
2.28793,5.61351,2.17632,4.51452,-2.81464,0
2.29140,5.60333,2.16841,4.52844,-2.81249,0
2.29486,5.59306,2.16054,4.54231,-2.81034,0
2.29830,5.58271,2.15271,4.55613,-2.80820,0
2.30174,5.57227,2.14492,4.56992,-2.80605,0
2.30517,5.56175,2.13717,4.58366,-2.80390,0
2.30858,5.55115,2.12946,4.59737,-2.80175,0
2.31199,5.54046,2.12179,4.61103,-2.79960,0
2.31538,5.52969,2.11416,4.62465,-2.79745,0
2.31877,5.51884,2.10657,4.63823,-2.79530,0
2.32214,5.50791,2.09902,4.65177,-2.79314,0
2.32551,5.49689,2.09150,4.66528,-2.79099,0
2.32886,5.48580,2.08403,4.67874,-2.78884,0
2.33221,5.47462,2.07659,4.69217,-2.78669,0
2.33554,5.46336,2.06919,4.70555,-2.78454,0
2.33887,5.45202,2.06183,4.71890,-2.78238,0
2.34219,5.44061,2.05451,4.73221,-2.78023,0
2.34549,5.42912,2.04722,4.74549,-2.77807,0
2.34879,5.41754,2.03997,4.75873,-2.77592,0
2.35208,5.40589,2.03276,4.77193,-2.77377,0
2.35536,5.39417,2.02559,4.78509,-2.77161,0
2.35864,5.38236,2.01845,4.79822,-2.76946,0
2.36190,5.37048,2.01135,4.81131,-2.76730,0
2.36515,5.35852,2.00429,4.82437,-2.76514,0
2.36840,5.34649,1.99727,4.83739,-2.76299,0
2.37163,5.33438,1.99028,4.85037,-2.76083,0
2.37486,5.32220,1.98332,4.86332,-2.75867,0
2.37808,5.30995,1.97641,4.87624,-2.75652,0
2.38129,5.29761,1.96953,4.88912,-2.75436,0
2.38449,5.28521,1.96268,4.90197,-2.75220,0
2.38768,5.27273,1.95587,4.91479,-2.75004,0
2.39087,5.26019,1.94910,4.92757,-2.74789,0
2.39405,5.24756,1.94236,4.94032,-2.74573,0
2.39721,5.23487,1.93566,4.95304,-2.74357,0
2.40037,5.22211,1.92899,4.96572,-2.74141,0
2.40353,5.20927,1.92235,4.97837,-2.73925,0
2.40667,5.19637,1.91575,4.99099,-2.73709,0
2.40981,5.18339,1.90919,5.00000,-2.73493,0
2.41294,5.17035,1.90266,5.00000,-2.73277,0
2.41607,5.15724,1.89616,5.00000,-2.73060,0
2.41920,5.14406,1.88970,5.00000,-2.72842,0
2.42233,5.13081,1.88327,5.00000,-2.72624,0
2.42546,5.11749,1.87688,5.00000,-2.72406,0
2.42859,5.10411,1.87052,5.00000,-2.72187,0
2.43172,5.09066,1.86419,5.00000,-2.71967,0
2.43485,5.07714,1.85790,5.00000,-2.71747,0
2.43799,5.06356,1.85164,5.00000,-2.71526,0
2.44112,5.04991,1.84541,5.00000,-2.71305,0
2.44425,5.03620,1.83921,5.00000,-2.71083,0
2.44738,5.02242,1.83305,5.00000,-2.70860,0
2.45051,5.00858,1.82692,5.00000,-2.70637,0
2.45364,4.99467,1.82082,5.00000,-2.70413,0
2.45677,4.98070,1.81475,5.00000,-2.70189,0
2.45990,4.96667,1.80872,5.00000,-2.69964,0
2.46303,4.95258,1.80272,5.00000,-2.69739,0
2.46616,4.93843,1.79675,5.00000,-2.69513,0
2.46929,4.92421,1.79081,5.00000,-2.69287,0
2.47243,4.90993,1.78490,5.00000,-2.69059,0
2.47556,4.89560,1.77902,5.00000,-2.68832,0
2.47869,4.88120,1.77318,5.00000,-2.68603,0
2.48182,4.86674,1.76736,5.00000,-2.68375,0
2.48495,4.85223,1.76158,5.00000,-2.68145,0
2.48808,4.83765,1.75582,5.00000,-2.67915,0
2.49121,4.82302,1.75010,5.00000,-2.67908,0
2.49434,4.80833,1.74440,5.00000,-2.67907,0
2.49747,4.79358,1.73874,5.00000,-2.67906,0
2.50060,4.77878,1.73311,5.00000,-2.67904,0
2.50373,4.76392,1.72750,5.00000,-2.67901,0
2.50686,4.74900,1.72193,5.00000,-2.67898,0
2.51000,4.73403,1.71638,5.00000,-2.67894,0
2.51313,4.71900,1.71087,5.00000,-2.67890,0
2.51626,4.70392,1.70538,5.00000,-2.67885,0
2.51939,4.68878,1.69992,5.00000,-2.67880,0
2.52252,4.67359,1.69449,4.99099,-2.67874,0
2.52566,4.65835,1.68909,4.97837,-2.67867,0
2.52880,4.64305,1.68372,4.96572,-2.67860,0
2.53195,4.62771,1.67837,4.95304,-2.67852,0
2.53511,4.61231,1.67305,4.94032,-2.67844,0
2.53828,4.59685,1.66777,4.92757,-2.67835,0
2.54146,4.58135,1.66250,4.91479,-2.67825,0
2.54464,4.56580,1.65727,4.90197,-2.67815,0
2.54784,4.55019,1.65207,4.88912,-2.67804,0
2.55104,4.53454,1.64689,4.87624,-2.67792,0
2.55425,4.51884,1.64174,4.86332,-2.67780,0
2.55747,4.50309,1.63661,4.85037,-2.67768,0
2.56069,4.48729,1.63151,4.83739,-2.67754,0
2.56393,4.47144,1.62644,4.82437,-2.67740,0
2.56718,4.45554,1.62140,4.81131,-2.67726,0
2.57043,4.43960,1.61638,4.79822,-2.67710,0
2.57369,4.42361,1.61138,4.78509,-2.67694,0
2.57696,4.40758,1.60642,4.77193,-2.67678,0
2.58024,4.39149,1.60148,4.75873,-2.67660,0
2.58353,4.37537,1.59656,4.74549,-2.67642,0
2.58683,4.35920,1.59167,4.73221,-2.67623,0
2.59014,4.34298,1.58681,4.71890,-2.67604,0
2.59346,4.32672,1.58197,4.70555,-2.67584,0
2.59678,4.31042,1.57715,4.69217,-2.67563,0
2.60012,4.29407,1.57236,4.67874,-2.67542,0
2.60347,4.27769,1.56760,4.66528,-2.67519,0
2.60682,4.26126,1.56286,4.65177,-2.67496,0
2.61019,4.24478,1.55814,4.63823,-2.67473,0
2.61356,4.22827,1.55345,4.62465,-2.67448,0
2.61695,4.21172,1.54878,4.61103,-2.67423,0
2.62034,4.19512,1.54414,4.59737,-2.67397,0
2.62375,4.17849,1.53952,4.58366,-2.67371,0
2.62716,4.16181,1.53492,4.56992,-2.67343,0
2.63059,4.14510,1.53035,4.55613,-2.67315,0
2.63402,4.12835,1.52580,4.54231,-2.67286,0
2.63747,4.11156,1.52127,4.52844,-2.67256,0
2.64093,4.09473,1.51677,4.51452,-2.67226,0
2.64439,4.07787,1.51228,4.50057,-2.67194,0
2.64787,4.06096,1.50782,4.48657,-2.67162,0
2.65136,4.04403,1.50339,4.47253,-2.67129,0
2.65486,4.02705,1.49897,4.45844,-2.67096,0
2.65837,4.01004,1.49458,4.44431,-2.67061,0
2.66189,3.99300,1.49021,4.43013,-2.67026,0
2.66543,3.97592,1.48586,4.41591,-2.66989,0
2.66897,3.95881,1.48153,4.40164,-2.66952,0
2.67253,3.94166,1.47723,4.38733,-2.66914,0
2.67610,3.92448,1.47294,4.37297,-2.66875,0
2.67968,3.90727,1.46868,4.35856,-2.66836,0
2.68327,3.89002,1.46444,4.34410,-2.66795,0
2.68687,3.87275,1.46022,4.32960,-2.66754,0
2.69049,3.85544,1.45601,4.31504,-2.66711,0
2.69412,3.83810,1.45183,4.30044,-2.66668,0
2.69776,3.82073,1.44767,4.28579,-2.66624,0
2.70141,3.80333,1.44353,4.27109,-2.66578,0
2.70507,3.78590,1.43941,4.25633,-2.66532,0
2.70875,3.76844,1.43531,4.24153,-2.66485,0
2.71244,3.75095,1.43123,4.22667,-2.66437,0
2.71615,3.73344,1.42717,4.21176,-2.66388,0
2.71986,3.71589,1.42313,4.19680,-2.66338,0
2.72359,3.69832,1.41911,4.18179,-2.66287,0
2.72733,3.68073,1.41510,4.16672,-2.66235,0
2.73109,3.66310,1.41112,4.15159,-2.66182,0
2.73486,3.64545,1.40715,4.13641,-2.66128,0
2.73865,3.62777,1.40320,4.12118,-2.66073,0
2.74245,3.61007,1.39927,4.10588,-2.66017,0
2.74626,3.59235,1.39536,4.09053,-2.65960,0
2.75008,3.57459,1.39147,4.07513,-2.65902,0
2.75393,3.55682,1.38759,4.05966,-2.65843,0
2.75778,3.53902,1.38373,4.04414,-2.65782,0
2.76165,3.52120,1.37989,4.02855,-2.65721,0
2.76554,3.50336,1.37607,4.01291,-2.65658,0
2.76944,3.48549,1.37226,3.99720,-2.65595,0
2.77336,3.46761,1.36848,3.98143,-2.65530,0
2.77729,3.44970,1.36470,3.96560,-2.65464,0
2.78123,3.43177,1.36095,3.94971,-2.65397,0
2.78520,3.41382,1.35721,3.93375,-2.65328,0
2.78918,3.39585,1.35349,3.91773,-2.65259,0
2.79317,3.37786,1.34978,3.90164,-2.65188,0
2.79719,3.35985,1.34609,3.88548,-2.65116,0
2.80121,3.34183,1.34242,3.86926,-2.65042,0
2.80526,3.32378,1.33876,3.85297,-2.64968,0
2.80932,3.30572,1.33512,3.83661,-2.64892,0
2.81340,3.28764,1.33149,3.82018,-2.64815,0
2.81750,3.26955,1.32788,3.80367,-2.64737,0
2.82162,3.25143,1.32428,3.78710,-2.64657,0
2.82575,3.23331,1.32070,3.77045,-2.64576,0
2.82990,3.21516,1.31714,3.75373,-2.64493,0
2.83407,3.19701,1.31358,3.73694,-2.64409,0
2.83826,3.17883,1.31005,3.72007,-2.64324,0
2.84247,3.16065,1.30652,3.70312,-2.64237,0
2.84670,3.14245,1.30301,3.68609,-2.64149,0
2.85094,3.12423,1.29952,3.66899,-2.64060,0
2.85521,3.10601,1.29604,3.65180,-2.63969,0
2.85950,3.08777,1.29257,3.63454,-2.63876,0
2.86380,3.06952,1.28911,3.61719,-2.63782,0
2.86813,3.05126,1.28567,3.59975,-2.63686,0
2.87248,3.03298,1.28224,3.58224,-2.63589,0
2.87685,3.01470,1.27883,3.56463,-2.63490,0
2.88124,2.99641,1.27543,3.54694,-2.63390,0
2.88565,2.97810,1.27204,3.52916,-2.63288,0
2.89009,2.95979,1.26866,3.51129,-2.63184,0
2.89455,2.94147,1.26530,3.49333,-2.63079,0
2.89903,2.92314,1.26195,3.47528,-2.62972,0
2.90353,2.90481,1.25860,3.45713,-2.62863,0
2.90806,2.88646,1.25528,3.43889,-2.62752,0
2.91261,2.86811,1.25196,3.42055,-2.62640,0
2.91719,2.84975,1.24866,3.40211,-2.62526,0
2.92179,2.83139,1.24536,3.38357,-2.62410,0
2.92642,2.81302,1.24208,3.36493,-2.62292,0
2.93107,2.79465,1.23881,3.34618,-2.62172,0
2.93575,2.77627,1.23555,3.32733,-2.62050,0
2.94045,2.75789,1.23230,3.30837,-2.61926,0
2.94518,2.73950,1.22906,3.28930,-2.61800,0
2.94994,2.72111,1.22583,3.27012,-2.61673,0
2.95473,2.70272,1.22261,3.25083,-2.61543,0
2.95955,2.68432,1.21940,3.23142,-2.61411,0
2.96439,2.66592,1.21621,3.21189,-2.61276,0
2.96926,2.64752,1.21302,3.19225,-2.61140,0
