time,x_pos,y_pos,velocity,rotation,action
0.00010,7.57500,4.02500,0.00000,-3.14159,0
0.00020,7.57500,4.02500,0.33484,-3.14159,0
0.04688,7.55791,4.02495,0.47353,-3.14159,0
0.07988,7.54091,4.02481,0.57996,-3.14159,0
0.10683,7.52400,4.02458,0.66968,-3.14159,0
0.13017,7.50718,4.02426,0.74872,-3.14159,0
0.15104,7.49046,4.02385,0.82019,-3.14159,0
0.17010,7.47382,4.02336,0.88590,-3.14159,0
0.18774,7.45727,4.02278,0.94707,-3.14159,0
0.20424,7.44080,4.02212,1.00452,-3.14159,0
0.21980,7.42441,4.02138,1.05886,-3.14159,0
0.23456,7.40810,4.02057,1.11054,-3.14159,0
0.24863,7.39187,4.01967,1.15992,-3.14159,0
0.26211,7.37572,4.01870,1.20728,-3.14159,0
0.27505,7.35964,4.01766,1.25286,-3.14159,0
0.28753,7.34363,4.01654,1.29683,-3.14159,0
0.29958,7.32770,4.01536,1.33936,-3.14159,0
0.31125,7.31183,4.01410,1.38058,-3.14159,0
0.32257,7.29603,4.01278,1.42060,-3.14159,0
0.33357,7.28029,4.01140,1.45953,-3.14159,0
0.34428,7.26462,4.00995,1.49745,-3.14159,0
0.35471,7.24901,4.00845,1.53443,-3.14159,0
0.36490,7.23346,4.00688,1.57054,-3.14159,0
0.37485,7.21796,4.00526,1.60584,-3.14159,0
0.38458,7.20252,4.00358,1.64037,-3.14159,0
0.39411,7.18713,4.00185,1.67420,-3.14159,0
0.40344,7.17180,4.00006,1.70735,-3.14159,0
0.41260,7.15652,3.99823,1.73988,-3.14159,0
0.42158,7.14128,3.99634,1.77181,-3.14159,0
0.43040,7.12609,3.99441,1.80317,-3.14159,0
0.43907,7.11094,3.99244,1.83399,-3.14159,0
0.44759,7.09584,3.99042,1.86431,-3.14159,0
0.45597,7.08077,3.98836,1.89414,-3.14159,0
0.46423,7.06575,3.98627,1.92351,-3.14159,0
0.47235,7.05076,3.98413,1.95243,-3.14159,0
0.48036,7.03581,3.98196,1.98094,-3.14159,0
0.48825,7.02088,3.97975,2.00904,-3.14159,0
0.49602,7.00600,3.97751,2.03675,-3.14159,0
0.50370,6.99113,3.97524,2.06409,-3.14159,0
0.51127,6.97630,3.97295,2.09107,-3.14159,0
0.51874,6.96149,3.97062,2.11771,-3.14159,0
0.52612,6.94671,3.96827,2.14402,-3.14159,0
0.53341,6.93194,3.96590,2.17001,-3.14159,0
0.54062,6.91720,3.96350,2.19569,-3.14159,0
0.54773,6.90247,3.96109,2.22108,-3.14159,0
0.55477,6.88777,3.95865,2.24617,-3.14159,0
0.56173,6.87307,3.95620,2.27099,-3.14159,0
0.56861,6.85839,3.95374,2.29555,-3.14159,0
0.57542,6.84371,3.95126,2.31984,-3.14159,0
0.58216,6.82905,3.94877,2.34388,-3.14159,0
0.58882,6.81439,3.94628,2.36767,-3.14159,0
0.59542,6.79974,3.94377,2.39123,-3.14159,0
0.60196,6.78509,3.94126,2.41456,-3.14159,0
0.60843,6.77044,3.93875,2.39123,-3.14159,0
0.61497,6.75578,3.93623,2.36767,-3.14159,0
0.62157,6.74113,3.93371,2.34388,-3.14159,0
0.62824,6.72647,3.93120,2.31984,-3.14159,0
0.63497,6.71181,3.92869,2.29555,-3.14159,0
0.64178,6.69713,3.92618,2.27099,-3.14159,0
0.64866,6.68245,3.92368,2.24617,-3.14159,0
0.65562,6.66775,3.92119,2.22108,-3.14159,0
0.66266,6.65304,3.91870,2.19569,-3.14159,0
0.66978,6.63832,3.91624,2.17001,-3.14159,0
0.67698,6.62357,3.91378,2.14402,-3.14159,0
0.68427,6.60881,3.91134,2.11771,-3.14159,0
0.69165,6.59402,3.90892,2.09107,-3.14159,0
0.69912,6.57921,3.90651,2.06409,-3.14159,0
0.70669,6.56437,3.90413,2.03675,-3.14159,0
0.71437,6.54951,3.90177,2.00904,-3.14159,0
0.72215,6.53462,3.89944,1.98094,-3.14159,0
0.73004,6.51970,3.89713,1.95243,-3.14159,0
0.73804,6.50474,3.89485,1.92351,-3.14159,0
0.74617,6.48975,3.89260,1.89414,-3.14159,0
0.75442,6.47472,3.89038,1.86431,-3.14159,0
0.76280,6.45966,3.88819,1.83399,-3.14159,0
0.77132,6.44455,3.88604,1.80317,-3.14159,0
0.77999,6.42940,3.88393,1.77181,-3.14159,0
0.78881,6.41421,3.88185,1.73988,-3.14159,0
0.79779,6.39897,3.87982,1.70735,-3.14159,0
0.80695,6.38368,3.87783,1.67420,-3.14159,0
0.81628,6.36834,3.87588,1.64037,-3.14159,0
0.82581,6.35295,3.87398,1.60584,-3.14159,0
0.83554,6.33751,3.87212,1.57054,-3.14159,0
0.84549,6.32201,3.87032,1.53443,-3.14159,0
0.85568,6.30646,3.86856,1.49745,-3.14159,0
0.86612,6.29084,3.86686,1.45953,-3.14159,0
0.87683,6.27516,3.86522,1.42060,-3.14159,0
0.88783,6.25942,3.86363,1.38058,-3.14159,0
0.89915,6.24362,3.86210,1.33936,-3.14159,0
0.91082,6.22775,3.86063,1.29683,-3.14159,0
0.92287,6.21181,3.85922,1.25286,-3.14159,0
0.93534,6.19580,3.85787,1.20728,-3.14159,0
0.94829,6.17971,3.85659,1.15992,-3.14159,0
0.96176,6.16356,3.85538,1.11054,-3.14159,0
0.97583,6.14732,3.85424,1.05886,-3.14159,0
0.99059,6.13101,3.85316,1.00452,-3.14159,0
1.00615,6.11462,3.85216,0.94707,-3.14159,0
1.02266,6.09814,3.85124,0.88590,-3.14159,0
1.04030,6.08158,3.85039,0.82019,-3.14159,0
1.05935,6.06494,3.84962,0.74872,-3.14159,0
1.08023,6.04821,3.84893,0.66968,-3.14159,0
1.10356,6.03139,3.84832,0.57996,-3.14159,0
1.13051,6.01448,3.84779,0.47353,-3.14159,0
1.16352,5.99747,3.84735,0.33484,-3.14159,0
1.25687,5.94588,3.84655,0.00000,-3.14159,528516
1.25697,5.94588,3.84655,0.33484,-3.14159,0
1.30438,5.93837,3.86722,0.47353,-3.14159,0
1.33790,5.93066,3.88567,0.57996,-3.14159,0
1.36527,5.92313,3.90218,0.66968,-3.14159,0
1.38897,5.91617,3.91710,0.67644,-3.14159,0
1.41244,5.91015,3.93071,0.58775,-3.14159,0
1.43945,5.90545,3.94334,0.48305,-3.14159,0
1.47231,5.90245,3.95531,0.37889,-3.14159,0
1.51420,5.90155,3.96691,0.33187,-3.14159,0
1.56203,5.90310,3.97847,0.33071,-3.14159,0
1.61003,5.90751,3.99030,0.33484,-3.14159,0
1.70485,5.94160,4.03052,0.00000,-3.14159,132096
1.70495,5.94160,4.03052,0.33484,-3.14159,0
1.75229,5.91858,4.02991,0.47353,-3.14159,0
1.78577,5.89929,4.02641,0.50058,-3.14159,0
1.81744,5.88312,4.02094,0.52304,-3.14159,0
1.84775,5.86941,4.01442,0.62104,-3.14159,0
1.87328,5.85754,4.00777,0.55833,-3.14159,0
1.90167,5.84688,4.00192,0.44678,-3.14159,0
1.93715,5.83679,3.99778,0.29580,-3.14159,0
1.99074,5.82664,3.99629,0.25314,-3.14159,0
2.05337,5.81578,3.99835,0.33484,-3.14159,0
2.14806,5.77270,4.03510,0.00000,-3.14159,533504
2.14816,5.77270,4.03510,0.33484,-3.14159,0
2.19516,5.79551,4.03524,0.47353,-3.13184,0
2.22839,5.81771,4.03566,0.57996,-3.11322,0
2.25552,5.83931,4.03636,0.66968,-3.09081,0
2.27902,5.86033,4.03733,0.74872,-3.06617,0
2.30004,5.88077,4.03857,0.82019,-3.04002,0
2.31922,5.90065,4.04008,0.88590,-3.01275,0
2.33699,5.91998,4.04186,0.94707,-2.98462,0
2.35360,5.93879,4.04390,1.00452,-2.95580,0
2.36927,5.95708,4.04620,1.05886,-2.92640,0
2.38413,5.97486,4.04876,1.11054,-2.89651,0
2.39830,5.99215,4.05158,1.15992,-2.86620,0
2.41187,6.00897,4.05465,1.20728,-2.83554,0
2.42490,6.02532,4.05797,1.25286,-2.80454,0
2.43746,6.04123,4.06154,1.23945,-2.77327,0
2.45016,6.05670,4.06535,1.20503,-2.74024,0
2.46322,6.07174,4.06941,1.18029,-2.70479,0
2.47655,6.08638,4.07371,1.15250,-2.66705,0
2.49021,6.10062,4.07824,1.12952,-2.62678,0
2.50414,6.11448,4.08301,1.11100,-2.58400,0
2.51830,6.12798,4.08802,1.09215,-2.53876,0
2.53271,6.14112,4.09325,1.07599,-2.49093,0
2.54734,6.15392,4.09871,1.06296,-2.44051,0
2.56214,6.16639,4.10439,1.05389,-2.38755,0
2.57707,6.17855,4.11030,1.04542,-2.33219,0
2.59213,6.19041,4.11643,1.03994,-2.27439,0
2.60726,6.20199,4.12277,1.03848,-2.21429,0
2.62241,6.21330,4.12933,1.03773,-2.15207,0
2.63758,6.22434,4.13610,1.04183,-2.08780,0
2.65268,6.23514,4.14307,1.04688,-2.02176,0
2.66771,6.24572,4.15026,1.05632,-1.95405,0
2.68261,6.25607,4.15765,1.06697,-1.88584,0
2.69736,6.26622,4.16524,1.08363,-1.82000,0
2.71188,6.27618,4.17303,1.10301,-1.75705,0
2.72615,6.28597,4.18101,1.12380,-1.69702,0
2.74015,6.29559,4.18919,1.14869,-1.63983,0
2.75385,6.30506,4.19756,1.17953,-1.58555,0
2.76719,6.31440,4.20612,1.21434,-1.53428,0
2.78015,6.32362,4.21486,1.25247,-1.48597,0
2.79272,6.33273,4.22379,1.29568,-1.44055,0
2.80486,6.34174,4.23289,1.33825,-1.39796,0
2.81662,6.35068,4.24218,1.37950,-1.35796,0
2.82803,6.35954,4.25164,1.41956,-1.32032,0
2.83911,6.36836,4.26127,1.45852,-1.28484,0
2.84990,6.37713,4.27108,1.49646,-1.25135,0
2.86042,6.38588,4.28105,1.53346,-1.21969,0
2.87068,6.39462,4.29118,1.56959,-1.18973,0
2.88071,6.40336,4.30148,1.60491,-1.16135,0
2.89051,6.41211,4.31194,1.63947,-1.13446,0
2.90011,6.42090,4.32255,1.67331,-1.10895,0
2.90951,6.42972,4.33332,1.70649,-1.08474,0
2.91874,6.43860,4.34424,1.73903,-1.06176,0
2.92779,6.44756,4.35531,1.77097,-1.03993,0
2.93667,6.45659,4.36653,1.80234,-1.01920,0
2.94540,6.46572,4.37789,1.83318,-0.99951,0
2.95399,6.47497,4.38939,1.86351,-0.98080,0
2.96243,6.48433,4.40103,1.89336,-0.96303,0
2.97074,6.49384,4.41281,1.92274,-0.94615,0
2.97893,6.50350,4.42472,1.95167,-0.93013,0
2.98699,6.51332,4.43677,1.98019,-0.91491,0
2.99494,6.52332,4.44894,2.00830,-0.90048,0
3.00277,6.53352,4.46124,2.03602,-0.88679,0
3.01050,6.54392,4.47366,2.06337,-0.87382,0
3.01813,6.55454,4.48620,2.09036,-0.86153,0
3.02566,6.56539,4.49886,2.11701,-0.84990,0
3.03309,6.57650,4.51163,2.13216,-0.83891,0
3.04047,6.58786,4.52452,2.10570,-0.82848,0
3.04794,6.59950,4.53752,2.07891,-0.81841,0
3.05551,6.61143,4.55062,2.05177,-0.80870,0
3.06318,6.62366,4.56383,2.02426,-0.79939,0
3.07096,6.63620,4.57715,1.99638,-0.79047,0
3.07884,6.64908,4.59056,1.98461,-0.78197,0
3.08677,6.66230,4.60407,1.96764,-0.77397,0
3.09477,6.67587,4.61768,1.96170,-0.76647,0
3.10279,6.68982,4.63137,1.99007,-0.75950,0
3.11860,6.73401,4.67299,2.01804,-0.72007,0
3.12640,6.73401,4.67299,2.04563,-0.71978,0
3.13410,6.74944,4.68711,2.07285,-0.71890,0
3.14169,6.76468,4.70116,2.09972,-0.71747,0
3.14919,6.77976,4.71515,2.12625,-0.71551,0
3.15659,6.79467,4.72907,2.15246,-0.71303,0
3.16391,6.80941,4.74291,2.17835,-0.71006,0
3.17113,6.82400,4.75667,2.20393,-0.70661,0
3.17828,6.83844,4.77035,2.22922,-0.70270,0
3.18534,6.85273,4.78394,2.25423,-0.69835,0
3.19232,6.86687,4.79743,2.27896,-0.69356,0
3.19923,6.88087,4.81082,2.30343,-0.68836,0
3.20606,6.89473,4.82410,2.29813,-0.68276,0
3.21291,6.90845,4.83728,2.27360,-0.67669,0
3.21984,6.92205,4.85035,2.24881,-0.67008,0
3.22684,6.93553,4.86329,2.22375,-0.66293,0
3.23391,6.94888,4.87611,2.19839,-0.65521,0
3.24107,6.96212,4.88880,2.17274,-0.64690,0
3.24832,6.97525,4.90136,2.14679,-0.63799,0
3.25565,6.98826,4.91379,2.12051,-0.62845,0
3.26308,7.00118,4.92606,2.09391,-0.61825,0
3.27059,7.01399,4.93820,2.06696,-0.60738,0
3.27821,7.02671,4.95018,2.03966,-0.59580,0
3.28593,7.03933,4.96200,2.01199,-0.58349,0
3.29375,7.05187,4.97366,1.98393,-0.57042,0
3.30168,7.06433,4.98515,1.95547,-0.55656,0
3.30973,7.07671,4.99647,1.92659,-0.54186,0
3.31791,7.08901,5.00762,1.89727,-0.52630,0
3.32620,7.10124,5.01859,1.86749,-0.50983,0
3.33463,7.11340,5.02937,1.83723,-0.49241,0
3.34320,7.12551,5.03996,1.80645,-0.47399,0
3.35191,7.13755,5.05035,1.77515,-0.45452,0
3.36078,7.14954,5.06054,1.74329,-0.43395,0
3.36981,7.16148,5.07053,1.71083,-0.41222,0
3.37901,7.17338,5.08031,1.67774,-0.38926,0
3.38839,7.18523,5.08988,1.64399,-0.36499,0
3.39797,7.19704,5.09923,1.60953,-0.33991,0
3.40775,7.20883,5.10835,1.57431,-0.31519,0
3.41775,7.22058,5.11724,1.53829,-0.29088,0
3.42798,7.23231,5.12590,1.50141,-0.26701,0
3.43847,7.24401,5.13432,1.46359,-0.24362,0
3.44922,7.25571,5.14250,1.42478,-0.22073,0
3.46027,7.26738,5.15043,1.38487,-0.19840,0
3.47164,7.27905,5.15811,1.34378,-0.17666,0
3.48335,7.29072,5.16553,1.30494,-0.15558,0
3.49541,7.30238,5.17269,1.26725,-0.13527,0
3.50784,7.31405,5.17959,1.23306,-0.11584,0
3.52060,7.32573,5.18621,1.20185,-0.09744,0
3.53370,7.33742,5.19255,1.16885,-0.08022,0
3.54717,7.34913,5.19862,1.14295,-0.06426,0
3.56094,7.36086,5.20439,1.11395,-0.04976,0
3.57507,7.37261,5.20988,1.08960,-0.03681,0
3.58952,7.38439,5.21507,1.06794,-0.02558,0
3.60426,7.39621,5.21996,1.04633,-0.01623,0
3.61930,7.40806,5.22455,1.02611,-0.00887,0
3.63464,7.41996,5.22882,1.00770,-0.00363,0
3.65027,7.43190,5.23278,0.99457,-0.00066,0
3.66609,7.44389,5.23643,0.97959,0.00000,0
3.68216,7.45593,5.23974,0.96646,0.00000,0
3.69845,7.46803,5.24273,0.95734,0.00000,0
3.71489,7.48020,5.24539,0.94816,0.00000,0
3.73150,7.49243,5.24770,0.94043,0.00000,0
3.74823,7.50473,5.24968,0.93544,0.00000,0
3.76506,7.51711,5.25130,0.93207,0.00000,0
3.78195,7.52956,5.25257,0.99039,0.00000,0
3.81374,7.56745,5.25423,1.04547,0.00000,256
3.82882,7.56745,5.25423,1.09778,0.00000,0
3.84319,7.58276,5.25423,1.14771,0.00000,0
3.85693,7.59847,5.25423,1.19555,0.00000,0
3.87012,7.61454,5.25423,1.24156,0.00000,0
3.88282,7.63093,5.25423,1.28592,0.00000,0
3.89508,7.64758,5.25423,1.32880,0.00000,0
3.90695,7.66445,5.25423,1.37034,0.00000,0
3.91846,7.68151,5.25423,1.41065,0.00000,0
3.92964,7.69870,5.25423,1.38058,0.00000,0
3.94106,7.71599,5.25423,1.33936,0.00000,0
3.95283,7.73333,5.25423,1.29683,0.00000,0
3.96499,7.75067,5.25423,1.25286,0.00000,0
3.97758,7.76798,5.25423,1.20728,0.00000,0
3.99064,7.78520,5.25423,1.15992,0.00000,0
4.00424,7.80230,5.25423,1.11054,0.00000,0
4.01844,7.81923,5.25423,1.05886,0.00000,0
4.03333,7.83595,5.25423,1.00452,0.00000,0
4.04903,7.85240,5.25423,0.94707,0.00000,0
4.06568,7.86856,5.25423,0.88590,0.00000,0
4.08348,7.88438,5.25423,0.82019,0.00000,0
4.10271,7.89980,5.25423,0.74872,0.00000,0
4.12377,7.91479,5.25423,0.66968,0.00000,0
4.14732,7.92931,5.25423,0.57996,0.00000,0
4.17451,7.94331,5.25423,0.47353,0.00000,0
4.20781,7.95674,5.25423,0.33484,0.00000,0
4.30200,7.99322,5.25423,0.00000,0.00000,4096
4.30210,7.99322,5.25423,0.33484,0.00000,0
4.34916,7.95861,5.25420,0.47353,0.00000,0
4.38243,7.92534,5.25411,0.57996,0.00000,0
4.40961,7.89337,5.25397,0.66968,0.00000,0
4.43314,7.86268,5.25378,0.74872,0.00000,0
4.45418,7.83321,5.25354,0.82019,0.00000,0
4.47339,7.80494,5.25325,0.88590,0.00000,0
4.49118,7.77783,5.25292,0.94707,0.00000,0
4.50782,7.75185,5.25255,1.00452,0.00000,0
4.52350,7.72696,5.25214,1.05886,0.00000,0
4.53839,7.70312,5.25170,1.11054,0.00000,0
4.55257,7.68030,5.25122,1.15992,0.00000,0
4.56616,7.65846,5.25071,1.20728,0.00000,0
4.57921,7.63756,5.25018,1.25286,0.00000,0
4.59179,7.61758,5.24962,1.29683,0.00000,0
4.60394,7.59847,5.24903,1.33936,0.00000,0
4.61570,7.58020,5.24843,1.38058,0.00000,0
4.62712,7.56273,5.24782,1.42060,0.00000,0
4.63821,7.54602,5.24719,1.45953,0.00000,0
4.64901,7.53005,5.24654,1.49745,0.00000,0
4.65953,7.51477,5.24589,1.53443,0.00000,0
4.66980,7.50015,5.24523,1.57054,0.00000,0
4.67983,7.48616,5.24457,1.60584,0.00000,0
4.68964,7.47275,5.24391,1.64037,0.00000,0
4.69925,7.45989,5.24325,1.67420,0.00000,0
4.70866,7.44755,5.24260,1.70735,0.00000,0
4.71789,7.43568,5.24195,1.73988,0.00000,0
4.72695,7.42426,5.24132,1.77181,0.00000,0
4.73584,7.41325,5.24069,1.80317,0.00000,0
4.74458,7.40261,5.24008,1.83399,0.00000,0
4.75317,7.39231,5.23949,1.86431,0.00000,0
4.76162,7.38230,5.23892,1.89414,0.00000,0
4.76994,7.37256,5.23838,1.92351,0.00000,0
4.77813,7.36305,5.23786,1.95243,0.00000,0
4.78620,7.35373,5.23737,1.98094,0.00000,0
4.79416,7.34457,5.23691,1.95290,0.00000,0
4.80223,7.33553,5.23649,1.92398,0.00000,0
4.81042,7.32657,5.23610,1.89462,0.00000,0
4.81874,7.31767,5.23575,1.86479,0.00000,0
4.82719,7.30877,5.23545,1.83449,0.00000,0
4.83578,7.29985,5.23519,1.80367,0.00000,0
4.84451,7.29088,5.23497,1.77232,0.00000,0
4.85340,7.28181,5.23481,1.74660,0.00000,0
4.86242,7.27261,5.23470,1.72968,0.00000,0
4.87153,7.26324,5.23465,1.73745,0.00000,0
4.88060,7.25367,5.23465,1.75042,0.00000,0
4.88961,7.24386,5.23472,1.78216,0.00000,0
4.89845,7.23378,5.23485,1.81334,0.00000,0
4.90714,7.22339,5.23505,1.84400,0.00000,0
4.92423,7.19000,5.23606,1.87415,0.00000,524288
4.93261,7.19000,5.23606,1.88803,0.00043,0
4.94094,7.16982,5.23672,1.85810,0.00172,0
4.94940,7.14993,5.23714,1.82768,0.00391,0
4.95800,7.13031,5.23733,1.79675,0.00703,0
4.96674,7.11096,5.23728,1.76527,0.01115,0
4.97565,7.09189,5.23700,1.74266,0.01631,0
4.98467,7.07308,5.23649,1.71213,0.02253,0
4.99385,7.05453,5.23575,1.68671,0.02989,0
5.00316,7.03623,5.23478,1.65434,0.03843,0
5.01267,7.01819,5.23358,1.62712,0.04823,0
5.02233,7.00040,5.23216,1.60443,0.05935,0
5.03212,6.98286,5.23051,1.58245,0.07179,0
5.04205,6.96555,5.22864,1.55787,0.08562,0
5.05214,6.94848,5.22655,1.54064,0.10091,0
5.06234,6.93165,5.22424,1.51465,0.11764,0
5.07272,6.91504,5.22172,1.49871,0.13599,0
5.08321,6.89866,5.21897,1.47745,0.15587,0
5.09385,6.88249,5.21602,1.46278,0.17743,0
5.10459,6.86655,5.21284,1.44298,0.20062,0
5.11548,6.85082,5.20946,1.42942,0.22558,0
5.12648,6.83529,5.20587,1.41384,0.25227,0
5.13759,6.81997,5.20206,1.40144,0.28076,0
5.14881,6.80485,5.19805,1.39468,0.31105,0
5.16008,6.78993,5.19384,1.37943,0.34305,0
5.17147,6.77520,5.18942,1.36867,0.37700,0
5.18296,6.76066,5.18480,1.36593,0.41283,0
5.19446,6.74630,5.17997,1.35479,0.45037,0
5.20606,6.73213,5.17495,1.35285,0.48987,0
5.21768,6.71812,5.16973,1.34038,0.53109,0
5.22941,6.70430,5.16431,1.34194,0.57438,0
5.24112,6.69063,5.15869,1.33897,0.61931,0
5.25286,6.67714,5.15288,1.33645,0.66604,0
5.26462,6.66380,5.14688,1.33583,0.71456,0
5.27638,6.65062,5.14069,1.33573,0.76482,0
5.28815,6.63759,5.13431,1.34126,0.81617,0
5.29987,6.62471,5.12774,1.34208,0.86588,0
5.31158,6.61198,5.12098,1.34486,0.91387,0
5.32327,6.59938,5.11404,1.34960,0.96008,0
5.33491,6.58692,5.10692,1.35635,1.00444,0
5.34650,6.57459,5.09961,1.36530,1.04693,0
5.35801,6.56239,5.09212,1.37040,1.08749,0
5.36948,6.55031,5.08446,1.38247,1.12628,0
5.38085,6.53835,5.07662,1.39385,1.16313,0
5.39213,6.52651,5.06860,1.40609,1.19811,0
5.40331,6.51478,5.06040,1.42120,1.23123,0
5.41436,6.50316,5.05204,1.43358,1.26248,0
5.42533,6.49164,5.04350,1.45285,1.29198,0
5.43615,6.48022,5.03479,1.46730,1.31963,0
5.44686,6.46890,5.02592,1.48719,1.34558,0
5.45743,6.45767,5.01687,1.50379,1.36981,0
5.46788,6.44652,5.00767,1.53168,1.39240,0
5.47814,6.43546,4.99829,1.55384,1.41328,0
5.48826,6.42448,4.98876,1.57763,1.43259,0
5.49822,6.41357,4.97906,1.60317,1.45037,0
5.50802,6.40273,4.96921,1.63065,1.46668,0
5.51766,6.39197,4.95919,1.66035,1.48155,0
5.52713,6.38126,4.94902,1.69378,1.49505,0
5.53641,6.37062,4.93870,1.72656,1.50720,0
5.54551,6.36002,4.92822,1.75873,1.51809,0
5.55445,6.34949,4.91759,1.79032,1.52779,0
5.56322,6.33899,4.90681,1.82136,1.53636,0
5.57185,6.32854,4.89588,1.85189,1.54385,0
5.58034,6.31813,4.88480,1.88191,1.55033,0
5.58869,6.30776,4.87358,1.91147,1.55583,0
5.59692,6.29741,4.86221,1.94058,1.56041,0
5.60501,6.28709,4.85070,1.96925,1.56410,0
5.61300,6.27680,4.83905,1.99752,1.56695,0
5.62086,6.26652,4.82726,1.98557,1.56900,0
5.63669,6.23576,4.79106,1.95714,1.57080,0
5.64470,6.23576,4.79106,1.92828,1.57120,0
5.65282,6.22699,4.78055,1.89899,1.57245,0
5.66107,6.21840,4.77024,1.86923,1.57456,0
5.66945,6.20997,4.76012,1.83900,1.57760,0
5.67797,6.20171,4.75016,1.80826,1.58160,0
5.68664,6.19361,4.74035,1.77699,1.58661,0
5.69545,6.18566,4.73066,1.74515,1.59268,0
5.70443,6.17787,4.72108,1.71273,1.59988,0
5.71357,6.17023,4.71159,1.67968,1.60827,0
5.72290,6.16273,4.70216,1.64597,1.61791,0
5.73242,6.15537,4.69277,1.61155,1.62889,0
5.74214,6.14814,4.68341,1.57638,1.64129,0
5.75208,6.14104,4.67407,1.54041,1.65520,0
5.76225,6.13407,4.66470,1.50358,1.67073,0
5.77267,6.12722,4.65531,1.46582,1.68801,0
5.78335,6.12048,4.64586,1.42706,1.70716,0
5.79433,6.11385,4.63635,1.38789,1.72833,0
5.80562,6.10734,4.62674,1.35815,1.75170,0
5.81715,6.10092,4.61702,1.33591,1.77725,0
5.82888,6.09461,4.60718,1.31767,1.80495,0
5.84077,6.08838,4.59718,1.30728,1.83482,0
5.85275,6.08225,4.58701,1.29746,1.86674,0
5.86483,6.07620,4.57666,1.29615,1.90074,0
5.87691,6.07022,4.56609,1.29684,1.93663,0
5.88899,6.06433,4.55530,1.31449,1.97434,0
5.90091,6.05850,4.54426,1.31307,2.01337,0
5.91284,6.05275,4.53295,1.33946,2.05424,0
5.92454,6.04705,4.52136,1.35639,2.09606,0
5.93609,6.04141,4.50946,1.38270,2.13906,0
5.94742,6.03582,4.49723,1.41097,2.18288,0
5.95852,6.03028,4.48466,1.44553,2.22740,0
5.96936,6.02479,4.47172,1.48250,2.27237,0
5.97992,6.01933,4.45840,1.45953,2.31765,0
5.99066,6.01391,4.44467,1.42060,2.36504,0
6.00168,6.00852,4.43052,1.38058,2.41320,0
6.01303,6.00315,4.41592,1.33936,2.46116,0
6.02473,5.99781,4.40086,1.29683,2.50888,0
6.03681,5.99248,4.38532,1.25286,2.55634,0
6.04931,5.98716,4.36928,1.20728,2.60352,0
6.06229,5.98185,4.35271,1.15992,2.65038,0
6.07579,5.97654,4.33560,1.11054,2.69689,0
6.08990,5.97123,4.31793,1.05886,2.74300,0
6.10469,5.96592,4.29968,1.00452,2.78865,0
6.12029,5.96059,4.28082,0.94707,2.83377,0
6.13683,5.95525,4.26135,0.88590,2.87825,0
6.15451,5.94989,4.24124,0.82019,2.92196,0
6.17361,5.94450,4.22047,0.74872,2.96473,0
6.19454,5.93909,4.19901,0.66968,3.00626,0
6.21793,5.93364,4.17686,0.57996,3.04613,0
6.24494,5.92816,4.15399,0.47353,3.08353,0
6.27802,5.92263,4.13039,0.33484,3.11673,0
6.32481,5.91705,4.10602,0.00000,3.14000,32768
