time,x_pos,y_pos,velocity,rotation,action
0.00010,7.58401,7.57893,0.00000,-3.14159,0
0.00020,7.58401,7.57893,0.35484,-3.14159,0
0.04436,7.57850,7.57275,0.50182,-3.14009,0
0.07558,7.57287,7.56646,0.61460,-3.13721,0
0.10108,7.56712,7.56007,0.70968,-3.13375,0
0.12316,7.56126,7.55359,0.79345,-3.12994,0
0.14291,7.55529,7.54700,0.86918,-3.12590,0
0.16093,7.54920,7.54032,0.93882,-3.12169,0
0.17763,7.54300,7.53354,1.00364,-3.11735,0
0.19324,7.53669,7.52666,1.06452,-3.11289,0
0.20796,7.53027,7.51969,1.12210,-3.10835,0
0.22192,7.52374,7.51262,1.17687,-3.10374,0
0.23524,7.51710,7.50546,1.22920,-3.09906,0
0.24798,7.51035,7.49821,1.27940,-3.09432,0
0.26023,7.50350,7.49086,1.32769,-3.08953,0
0.27203,7.49654,7.48343,1.37429,-3.08470,0
0.28343,7.48947,7.47590,1.41936,-3.07983,0
0.29447,7.48230,7.46828,1.46305,-3.07492,0
0.30518,7.47503,7.46058,1.50546,-3.06998,0
0.31559,7.46766,7.45278,1.54671,-3.06501,0
0.32572,7.46018,7.44490,1.58690,-3.06002,0
0.33560,7.45260,7.43693,1.62608,-3.05499,0
0.34523,7.44493,7.42888,1.66435,-3.04995,0
0.35465,7.43715,7.42074,1.70176,-3.04488,0
0.36386,7.42928,7.41251,1.73836,-3.03979,0
0.37287,7.42131,7.40421,1.77420,-3.03468,0
0.38170,7.41325,7.39582,1.80934,-3.02956,0
0.39036,7.40509,7.38735,1.84381,-3.02442,0
0.39886,7.39683,7.37879,1.87764,-3.01926,0
0.40721,7.38848,7.37016,1.91087,-3.01408,0
0.41541,7.38004,7.36145,1.94354,-3.00889,0
0.42347,7.37151,7.35266,1.97567,-3.00369,0
0.43140,7.36288,7.34379,2.00728,-2.99848,0
0.43921,7.35417,7.33485,2.03840,-2.99325,0
0.44689,7.34537,7.32582,2.06906,-2.98801,0
0.45447,7.33648,7.31673,2.09927,-2.98276,0
0.46193,7.32750,7.30755,2.12904,-2.97750,0
0.46929,7.31843,7.29831,2.15841,-2.97223,0
0.47655,7.30928,7.28899,2.18738,-2.96694,0
0.48371,7.30005,7.27960,2.21598,-2.96165,0
0.49078,7.29073,7.27014,2.24421,-2.95635,0
0.49777,7.28133,7.26061,2.27209,-2.95104,0
0.50466,7.27185,7.25100,2.29963,-2.94573,0
0.51148,7.26229,7.24133,2.32685,-2.94040,0
0.51821,7.25264,7.23159,2.35375,-2.93507,0
0.52487,7.24292,7.22178,2.38034,-2.92972,0
0.53145,7.23312,7.21191,2.40665,-2.92438,0
0.53796,7.22324,7.20197,2.43266,-2.91902,0
0.54440,7.21328,7.19197,2.45841,-2.91366,0
0.55078,7.20325,7.18190,2.48388,-2.90829,0
0.55709,7.19315,7.17176,2.50910,-2.90291,0
0.56333,7.18297,7.16157,2.53407,-2.89753,0
0.56951,7.17272,7.15131,2.55879,-2.89214,0
0.57564,7.16239,7.14100,2.58328,-2.88675,0
0.58170,7.15200,7.13062,2.60753,-2.88135,0
0.58771,7.14153,7.12018,2.63157,-2.87594,0
0.59367,7.13100,7.10968,2.65538,-2.87053,0
0.59957,7.12039,7.09913,2.67899,-2.86511,0
0.60542,7.10972,7.08852,2.70239,-2.85969,0
0.61122,7.09898,7.07785,2.72558,-2.85427,0
0.61696,7.08818,7.06713,2.74858,-2.84883,0
0.62267,7.07731,7.05635,2.77139,-2.84340,0
0.62832,7.06638,7.04552,2.79402,-2.83796,0
0.63393,7.05538,7.03464,2.81646,-2.83251,0
0.63949,7.04432,7.02370,2.83872,-2.82706,0
0.64501,7.03320,7.01272,2.86082,-2.82161,0
0.65049,7.02202,7.00168,2.88274,-2.81615,0
0.65592,7.01078,6.99059,2.90450,-2.81069,0
0.66132,6.99948,6.97945,2.92609,-2.80522,0
0.66667,6.98813,6.96827,2.94753,-2.79975,0
0.67199,6.97672,6.95704,2.96881,-2.79428,0
0.67727,6.96525,6.94576,2.98994,-2.78880,0
0.68251,6.95372,6.93443,3.01092,-2.78332,0
0.68771,6.94214,6.92306,3.03176,-2.77783,0
0.69288,6.93051,6.91165,3.05245,-2.77234,0
0.69801,6.91883,6.90019,3.07301,-2.76685,0
0.70311,6.90709,6.88869,3.09343,-2.76135,0
0.70818,6.89530,6.87715,3.11371,-2.75585,0
0.71321,6.88346,6.86556,3.13387,-2.75035,0
0.71821,6.87158,6.85394,3.15389,-2.74485,0
0.72318,6.85965,6.84228,3.17379,-2.73934,0
0.72812,6.84766,6.83058,3.19357,-2.73383,0
0.73302,6.83564,6.81884,3.21322,-2.72831,0
0.73790,6.82357,6.80706,3.23275,-2.72279,0
0.74275,6.81145,6.79525,3.25217,-2.71727,0
0.74756,6.79929,6.78340,3.27147,-2.71175,0
0.75235,6.78708,6.77152,3.29066,-2.70622,0
0.75712,6.77484,6.75960,3.30973,-2.70069,0
0.76185,6.76255,6.74765,3.32870,-2.69516,0
0.76656,6.75023,6.73567,3.34756,-2.68963,0
0.77124,6.73786,6.72366,3.36631,-2.68409,0
0.77589,6.72546,6.71162,3.38496,-2.67855,0
0.78052,6.71302,6.69954,3.40351,-2.67301,0
0.78513,6.70054,6.68744,3.42196,-2.66746,0
0.78971,6.68803,6.67531,3.44031,-2.66191,0
0.79426,6.67548,6.66315,3.45856,-2.65636,0
0.79879,6.66290,6.65097,3.47671,-2.65081,0
0.80330,6.65028,6.63876,3.49477,-2.64526,0
0.80778,6.63764,6.62652,3.51274,-2.63970,0
0.81224,6.62496,6.61426,3.53062,-2.63414,0
0.81668,6.61225,6.60198,3.54841,-2.62858,0
0.82110,6.59951,6.58967,3.56610,-2.62302,0
0.82549,6.58675,6.57734,3.58371,-2.61745,0
0.82986,6.57396,6.56500,3.60124,-2.61192,0
0.83421,6.56114,6.55263,3.61868,-2.60644,0
0.83854,6.54829,6.54024,3.63603,-2.60102,0
0.84285,6.53542,6.52783,3.65331,-2.59565,0
0.84714,6.52252,6.51541,3.65331,-2.59034,0
0.85143,6.50961,6.50296,3.63603,-2.58506,0
0.85574,6.49667,6.49051,3.61868,-2.57978,0
0.86007,6.48371,6.47803,3.60124,-2.57450,0
0.86442,6.47072,6.46555,3.58371,-2.56922,0
0.86879,6.45772,6.45304,3.56610,-2.56395,0
0.87319,6.44470,6.44053,3.54841,-2.55869,0
0.87760,6.43167,6.42800,3.53062,-2.55342,0
0.88204,6.41861,6.41546,3.51274,-2.54816,0
0.88650,6.40554,6.40291,3.49477,-2.54291,0
0.89099,6.39246,6.39035,3.47671,-2.53765,0
0.89549,6.37936,6.37779,3.45856,-2.53241,0
0.90002,6.36624,6.36521,3.44031,-2.52716,0
0.90458,6.35312,6.35263,3.42196,-2.52192,0
0.90916,6.33998,6.34004,3.40351,-2.51669,0
0.91376,6.32683,6.32744,3.38496,-2.51145,0
0.91839,6.31367,6.31484,3.36631,-2.50623,0
0.92305,6.30051,6.30223,3.34756,-2.50100,0
0.92773,6.28733,6.28963,3.32870,-2.49578,0
0.93243,6.27415,6.27701,3.30973,-2.49057,0
0.93717,6.26097,6.26440,3.29066,-2.48536,0
0.94193,6.24777,6.25179,3.27147,-2.48015,0
0.94672,6.23458,6.23917,3.25217,-2.47495,0
0.95154,6.22137,6.22656,3.23275,-2.46975,0
0.95639,6.20817,6.21395,3.21322,-2.46456,0
0.96126,6.19497,6.20133,3.19357,-2.45938,0
0.96617,6.18176,6.18873,3.17379,-2.45419,0
0.97111,6.16855,6.17612,3.15389,-2.44902,0
0.97607,6.15535,6.16353,3.13387,-2.44385,0
0.98107,6.14215,6.15093,3.11371,-2.43868,0
0.98611,6.12894,6.13834,3.09343,-2.43352,0
0.99117,6.11575,6.12576,3.07301,-2.42837,0
0.99627,6.10256,6.11319,3.05245,-2.42322,0
1.00140,6.08937,6.10063,3.03176,-2.41807,0
1.00657,6.07619,6.08807,3.01092,-2.41294,0
1.01178,6.06301,6.07553,2.98994,-2.40780,0
1.01702,6.04985,6.06299,2.96881,-2.40268,0
1.02229,6.03669,6.05047,2.94753,-2.39756,0
1.02761,6.02354,6.03796,2.92609,-2.39245,0
1.03297,6.01041,6.02547,2.90450,-2.38734,0
1.03836,5.99728,6.01298,2.88274,-2.38224,0
1.04380,5.98417,6.00052,2.86082,-2.37715,0
1.04927,5.97107,5.98806,2.83872,-2.37206,0
1.05479,5.95799,5.97563,2.81646,-2.36698,0
1.06036,5.94492,5.96321,2.79402,-2.36191,0
1.06597,5.93186,5.95081,2.77139,-2.35684,0
1.07162,5.91883,5.93843,2.74858,-2.35179,0
1.07732,5.90581,5.92607,2.72558,-2.34674,0
1.08307,5.89281,5.91373,2.70239,-2.34170,0
1.08887,5.87983,5.90142,2.67899,-2.33667,0
1.09472,5.86687,5.88912,2.65538,-2.33164,0
1.10062,5.85393,5.87685,2.63157,-2.32663,0
1.10657,5.84102,5.86460,2.60753,-2.32162,0
1.11258,5.82812,5.85237,2.58328,-2.31662,0
1.11865,5.81525,5.84017,2.55879,-2.31163,0
1.12477,5.80241,5.82800,2.53407,-2.30666,0
1.13095,5.78959,5.81585,2.50910,-2.30169,0
1.13720,5.77680,5.80373,2.48388,-2.29673,0
1.14351,5.76404,5.79164,2.45841,-2.29178,0
1.14988,5.75130,5.77958,2.43266,-2.28685,0
1.15632,5.73860,5.76755,2.40665,-2.28192,0
1.16283,5.72592,5.75555,2.38034,-2.27701,0
1.16942,5.71328,5.74358,2.35375,-2.27211,0
1.17607,5.70066,5.73165,2.32685,-2.26722,0
1.18281,5.68809,5.71975,2.29963,-2.26234,0
1.18962,5.67554,5.70788,2.27209,-2.25748,0
1.19652,5.66303,5.69605,2.24421,-2.25263,0
1.20350,5.65056,5.68425,2.21598,-2.24779,0
1.21057,5.63812,5.67249,2.18738,-2.24297,0
1.21773,5.62572,5.66077,2.15841,-2.23817,0
1.22499,5.61335,5.64908,2.12904,-2.23338,0
1.23235,5.60103,5.63744,2.09927,-2.22861,0
1.23982,5.58875,5.62583,2.06906,-2.22386,0
1.24739,5.57650,5.61426,2.03840,-2.21912,0
1.25508,5.56430,5.60274,2.00728,-2.21440,0
1.26288,5.55215,5.59126,1.97567,-2.20970,0
1.27082,5.54003,5.57982,1.94354,-2.20503,0
1.27888,5.52796,5.56842,1.91087,-2.20037,0
1.28708,5.51594,5.55707,1.87764,-2.19574,0
1.29542,5.50396,5.54577,1.84381,-2.19114,0
1.30392,5.49203,5.53451,1.80934,-2.18655,0
1.31258,5.48015,5.52329,1.77420,-2.18200,0
1.32141,5.46831,5.51213,1.73836,-2.17747,0
1.33043,5.45653,5.50101,1.70176,-2.17298,0
1.33964,5.44480,5.48995,1.66435,-2.16852,0
1.34905,5.43312,5.47893,1.62608,-2.16409,0
1.35869,5.42149,5.46797,1.58690,-2.15970,0
1.36856,5.40991,5.45705,1.54671,-2.15535,0
1.37869,5.39839,5.44619,1.50546,-2.15104,0
1.38910,5.38693,5.43538,1.46305,-2.14677,0
1.39981,5.37552,5.42463,1.41936,-2.14256,0
1.41085,5.36416,5.41393,1.37429,-2.13841,0
1.42225,5.35287,5.40329,1.32769,-2.13431,0
1.43405,5.34163,5.39270,1.27940,-2.13028,0
1.44630,5.33046,5.38217,1.22920,-2.12633,0
1.45905,5.31934,5.37170,1.17687,-2.12246,0
1.47236,5.30829,5.36129,1.12210,-2.11868,0
1.48633,5.29730,5.35094,1.06452,-2.11501,0
1.50105,5.28637,5.34064,1.00364,-2.11147,0
1.51666,5.27550,5.33041,0.93882,-2.10808,0
1.53335,5.26470,5.32025,0.86918,-2.10487,0
1.55138,5.25397,5.31014,0.79345,-2.10188,0
1.57113,5.24330,5.30010,0.70968,-2.09918,0
1.59321,5.23270,5.29012,0.61460,-2.09688,0
1.61870,5.22217,5.28021,0.50182,-2.09515,0
1.64993,5.21171,5.27036,0.35484,-2.09440,0
1.73824,5.18076,5.24123,0.00000,-2.09440,36996
1.73834,5.18076,5.24123,0.35484,-2.09440,0
1.78245,5.16802,5.25233,0.50182,-2.09638,0
1.81364,5.15529,5.26337,0.61460,-2.10017,0
1.83911,5.14258,5.27434,0.70968,-2.10473,0
1.86116,5.12988,5.28526,0.79345,-2.10974,0
1.88089,5.11719,5.29612,0.86918,-2.11506,0
1.89890,5.10451,5.30692,0.93882,-2.12061,0
1.91557,5.09184,5.31765,1.00364,-2.12633,0
1.93116,5.07919,5.32833,1.06452,-2.13219,0
1.94587,5.06654,5.33895,1.12210,-2.13817,0
1.95981,5.05391,5.34952,1.17687,-2.14425,0
1.97311,5.04129,5.36002,1.22920,-2.15042,0
1.98585,5.02868,5.37047,1.27940,-2.15666,0
1.99808,5.01607,5.38086,1.32769,-2.16296,0
2.00987,5.00348,5.39119,1.37429,-2.16933,0
2.02126,4.99090,5.40147,1.41936,-2.17574,0
2.03228,4.97833,5.41169,1.46305,-2.18220,0
2.04298,4.96576,5.42185,1.50546,-2.18871,0
2.05338,4.95321,5.43196,1.54671,-2.19525,0
2.06350,4.94066,5.44201,1.58690,-2.20184,0
2.07336,4.92813,5.45201,1.62608,-2.20845,0
2.08299,4.91560,5.46195,1.66435,-2.21510,0
2.09239,4.90307,5.47184,1.70176,-2.22177,0
2.10159,4.89056,5.48168,1.73836,-2.22847,0
2.11059,4.87805,5.49146,1.77420,-2.23520,0
2.11941,4.86556,5.50119,1.80934,-2.24195,0
2.12806,4.85306,5.51086,1.84381,-2.24872,0
2.13655,4.84058,5.52048,1.87764,-2.25552,0
2.14489,4.82810,5.53005,1.91087,-2.26233,0
2.15308,4.81563,5.53957,1.94354,-2.26917,0
2.16113,4.80316,5.54904,1.97567,-2.27602,0
2.16906,4.79070,5.55845,2.00728,-2.28289,0
2.17685,4.77825,5.56781,2.03840,-2.28977,0
2.18453,4.76580,5.57713,2.06906,-2.29667,0
2.19210,4.75336,5.58639,2.09927,-2.30359,0
2.19955,4.74092,5.59560,2.12904,-2.31052,0
2.20690,4.72848,5.60476,2.15841,-2.31746,0
2.21415,4.71605,5.61387,2.18738,-2.32442,0
2.22131,4.70363,5.62294,2.21598,-2.33139,0
2.22837,4.69121,5.63195,2.24421,-2.33837,0
2.23535,4.67879,5.64092,2.27209,-2.34536,0
2.24224,4.66637,5.64984,2.29963,-2.35236,0
2.24904,4.65396,5.65870,2.32685,-2.35938,0
2.25577,4.64155,5.66753,2.35375,-2.36640,0
2.26242,4.62915,5.67630,2.38034,-2.37344,0
2.26899,4.61675,5.68503,2.40665,-2.38048,0
2.27550,4.60435,5.69371,2.43266,-2.38754,0
2.28193,4.59195,5.70235,2.45841,-2.39460,0
2.28830,4.57955,5.71094,2.48388,-2.40167,0
2.29460,4.56716,5.71948,2.50910,-2.40875,0
2.30084,4.55476,5.72798,2.53407,-2.41584,0
2.30701,4.54237,5.73643,2.55879,-2.42294,0
2.31313,4.52998,5.74484,2.58328,-2.43004,0
2.31919,4.51759,5.75320,2.60753,-2.43715,0
2.32519,4.50520,5.76152,2.63157,-2.44427,0
2.33114,4.49281,5.76980,2.65538,-2.45140,0
2.33703,4.48042,5.77803,2.67899,-2.45853,0
2.34288,4.46803,5.78622,2.70239,-2.46567,0
2.34867,4.45564,5.79437,2.72558,-2.47282,0
2.35441,4.44325,5.80248,2.74858,-2.47997,0
2.36010,4.43085,5.81054,2.77139,-2.48713,0
2.36575,4.41846,5.81856,2.79402,-2.49430,0
2.37135,4.40606,5.82654,2.81646,-2.50147,0
2.37691,4.39367,5.83448,2.83872,-2.50865,0
2.38242,4.38127,5.84238,2.86082,-2.51583,0
2.38790,4.36887,5.85023,2.88274,-2.52302,0
2.39333,4.35646,5.85805,2.90450,-2.53022,0
2.39871,4.34406,5.86583,2.92609,-2.53742,0
2.40406,4.33165,5.87357,2.94753,-2.54462,0
2.40937,4.31924,5.88126,2.96881,-2.55183,0
2.41464,4.30682,5.88892,2.98994,-2.55905,0
2.41988,4.29440,5.89654,3.01092,-2.56627,0
2.42508,4.28198,5.90413,3.03176,-2.57349,0
2.43024,4.26956,5.91167,3.05245,-2.58072,0
2.43537,4.25712,5.91918,3.07301,-2.58795,0
2.44046,4.24469,5.92665,3.09343,-2.59519,0
2.44552,4.23225,5.93408,3.11371,-2.60243,0
2.45055,4.21980,5.94148,3.13387,-2.60968,0
2.45554,4.20735,5.94884,3.15389,-2.61693,0
2.46050,4.19490,5.95617,3.17379,-2.62419,0
2.46544,4.18243,5.96346,3.19357,-2.63145,0
2.47034,4.16997,5.97071,3.21322,-2.63871,0
2.47521,4.15749,5.97793,3.23275,-2.64598,0
2.48005,4.14501,5.98511,3.25217,-2.65325,0
2.48486,4.13253,5.99226,3.27147,-2.66052,0
2.48965,4.12003,5.99938,3.29066,-2.66780,0
2.49440,4.10753,6.00646,3.30973,-2.67508,0
2.49913,4.09502,6.01351,3.32870,-2.68237,0
2.50383,4.08251,6.02052,3.34756,-2.68966,0
2.50851,4.06998,6.02751,3.36631,-2.69695,0
2.51316,4.05745,6.03446,3.38496,-2.70425,0
2.51778,4.04491,6.04138,3.40351,-2.71155,0
2.52238,4.03236,6.04826,3.42196,-2.71885,0
2.52696,4.01981,6.05512,3.44031,-2.72616,0
2.53150,4.00724,6.06194,3.45856,-2.73347,0
2.53603,3.99467,6.06874,3.47671,-2.74078,0
2.54053,3.98208,6.07550,3.49477,-2.74810,0
2.54501,3.96949,6.08223,3.51274,-2.75541,0
2.54947,3.95688,6.08893,3.53062,-2.76274,0
2.55390,3.94427,6.09561,3.54841,-2.77006,0
2.55831,3.93164,6.10225,3.56610,-2.77739,0
2.56270,3.91900,6.10887,3.58371,-2.78472,0
2.56707,3.90636,6.11545,3.60124,-2.79205,0
2.57141,3.89370,6.12201,3.61868,-2.79939,0
2.57574,3.88103,6.12854,3.63603,-2.80673,0
2.58004,3.86835,6.13505,3.65331,-2.81407,0
2.58433,3.85566,6.14152,3.67050,-2.82141,0
2.58859,3.84295,6.14797,3.68761,-2.82876,0
2.59284,3.83024,6.15439,3.70464,-2.83611,0
2.59706,3.81751,6.16079,3.72160,-2.84346,0
2.60127,3.80476,6.16716,3.73848,-2.85081,0
2.60545,3.79201,6.17351,3.75528,-2.85817,0
2.60962,3.77924,6.17983,3.77201,-2.86553,0
2.61377,3.76646,6.18612,3.78866,-2.87289,0
2.61790,3.75366,6.19239,3.80524,-2.88025,0
2.62201,3.74085,6.19864,3.82175,-2.88762,0
2.62611,3.72803,6.20486,3.83819,-2.89499,0
2.63019,3.71519,6.21105,3.85456,-2.90236,0
2.63425,3.70233,6.21723,3.87085,-2.90973,0
2.63829,3.68947,6.22338,3.88708,-2.91711,0
2.64232,3.67658,6.22951,3.90325,-2.92449,0
2.64633,3.66368,6.23562,3.91934,-2.93187,0
2.65032,3.65077,6.24170,3.93537,-2.93925,0
2.65430,3.63784,6.24776,3.95134,-2.94663,0
2.65826,3.62489,6.25380,3.96724,-2.95402,0
2.66220,3.61193,6.25982,3.98308,-2.96141,0
2.66613,3.59895,6.26582,3.99885,-2.96880,0
2.67005,3.58596,6.27180,4.01456,-2.97619,0
2.67395,3.57294,6.27776,4.03021,-2.98358,0
2.67783,3.55991,6.28370,4.04581,-2.99098,0
2.68170,3.54686,6.28962,4.06134,-2.99838,0
2.68555,3.53380,6.29552,4.07681,-3.00578,0
2.68939,3.52072,6.30140,4.09222,-3.01318,0
2.69322,3.50762,6.30726,4.10758,-3.02059,0
2.69703,3.49449,6.31311,4.12288,-3.02799,0
2.70082,3.48136,6.31893,4.13812,-3.03540,0
2.70461,3.46820,6.32474,4.15330,-3.04281,0
2.70837,3.45502,6.33054,4.16843,-3.05022,0
2.71213,3.44182,6.33631,4.15330,-3.05763,0
2.71590,3.42861,6.34207,4.13812,-3.06510,0
2.71968,3.41537,6.34781,4.12288,-3.07263,0
2.72348,3.40212,6.35354,4.10758,-3.08021,0
2.72729,3.38884,6.35925,4.09222,-3.08785,0
2.73111,3.37554,6.36494,4.07681,-3.09555,0
2.73495,3.36223,6.37062,4.06134,-3.10329,0
2.73880,3.34889,6.37629,4.04581,-3.11104,0
2.74267,3.33553,6.38194,4.03021,-3.11878,0
2.74656,3.32215,6.38758,4.01456,-3.12653,0
2.75046,3.30874,6.39320,3.99885,-3.13427,0
2.75437,3.29532,6.39881,3.98308,3.14117,0
2.75830,3.28187,6.40441,3.96724,3.13343,0
2.76224,3.26840,6.41000,3.95134,3.12569,0
2.76621,3.25491,6.41557,3.93537,3.11795,0
2.77018,3.24139,6.42113,3.91934,3.11021,0
2.77418,3.22785,6.42668,3.90325,3.10247,0
2.77819,3.21429,6.43221,3.88708,3.09473,0
2.78221,3.20070,6.43774,3.87085,3.08699,0
2.78626,3.18709,6.44326,3.85456,3.07925,0
2.79032,3.17346,6.44876,3.83819,3.07151,0
2.79439,3.15980,6.45426,3.82175,3.06378,0
2.79849,3.14612,6.45974,3.80524,3.05604,0
2.80260,3.13241,6.46522,3.78866,3.04831,0
2.80673,3.11868,6.47068,3.77201,3.04057,0
2.81088,3.10492,6.47614,3.75528,3.03284,0
2.81505,3.09114,6.48159,3.73848,3.02511,0
2.81924,3.07733,6.48703,3.72160,3.01738,0
2.82344,3.06349,6.49246,3.70464,3.00964,0
2.82767,3.04963,6.49789,3.68761,3.00191,0
2.83191,3.03574,6.50331,3.67050,2.99418,0
2.83618,3.02183,6.50872,3.65331,2.98646,0
2.84046,3.00789,6.51412,3.63603,2.97873,0
2.84477,2.99392,6.51952,3.61868,2.97100,0
2.84909,2.97992,6.52491,3.60124,2.96328,0
2.85344,2.96590,6.53030,3.58371,2.95555,0
2.85780,2.95185,6.53568,3.56610,2.94783,0
2.86219,2.93777,6.54106,3.54841,2.94010,0
2.86660,2.92366,6.54643,3.53062,2.93238,0
2.87104,2.90952,6.55180,3.51274,2.92466,0
2.87549,2.89536,6.55716,3.49477,2.91694,0
2.87997,2.88116,6.56252,3.47671,2.90922,0
2.88447,2.86694,6.56788,3.45856,2.90150,0
2.88900,2.85268,6.57323,3.44031,2.89378,0
2.89355,2.83840,6.57858,3.42196,2.88606,0
2.89812,2.82408,6.58393,3.40351,2.87835,0
2.90272,2.80974,6.58928,3.38496,2.87063,0
2.90735,2.79537,6.59462,3.36631,2.86292,0
2.91199,2.78096,6.59997,3.34756,2.85521,0
2.91667,2.76653,6.60531,3.32870,2.84749,0
2.92137,2.75206,6.61065,3.30973,2.83978,0
2.92610,2.73756,6.61599,3.29066,2.83207,0
2.93086,2.72303,6.62134,3.27147,2.82436,0
2.93564,2.70847,6.62668,3.25217,2.81666,0
2.94045,2.69387,6.63202,3.23275,2.80895,0
2.94530,2.67925,6.63736,3.21322,2.80125,0
2.95017,2.66459,6.64270,3.19357,2.79354,0
2.95507,2.64989,6.64805,3.17379,2.78584,0
2.96000,2.63517,6.65340,3.15389,2.77814,0
2.96496,2.62041,6.65875,3.13387,2.77044,0
2.96996,2.60562,6.66410,3.11371,2.76274,0
2.97498,2.59079,6.66945,3.09343,2.75504,0
2.98004,2.57593,6.67481,3.07301,2.74735,0
2.98514,2.56104,6.68017,3.05245,2.73965,0
2.99026,2.54611,6.68554,3.03176,2.73196,0
2.99543,2.53114,6.69091,3.01092,2.72427,0
3.00062,2.51615,6.69628,2.98994,2.71658,0
3.00586,2.50111,6.70166,2.96881,2.70889,0
3.01113,2.48604,6.70704,2.94753,2.70120,0
3.01644,2.47094,6.71243,2.92609,2.69351,0
3.02179,2.45580,6.71782,2.90450,2.68583,0
3.02718,2.44062,6.72322,2.88274,2.67815,0
3.03261,2.42541,6.72863,2.86082,2.67047,0
3.03808,2.41016,6.73405,2.83872,2.66279,0
3.04359,2.39487,6.73946,2.81646,2.65511,0
3.04915,2.37955,6.74489,2.79402,2.64744,0
3.05475,2.36418,6.75033,2.77139,2.63976,0
3.06040,2.34878,6.75577,2.74858,2.63209,0
3.06609,2.33335,6.76122,2.72558,2.62442,0
3.07184,2.31787,6.76668,2.70239,2.61675,0
3.07763,2.30236,6.77215,2.67899,2.60909,0
3.08347,2.28681,6.77763,2.65538,2.60142,0
3.08937,2.27122,6.78312,2.63157,2.59376,0
3.09531,2.25559,6.78862,2.60753,2.58610,0
3.10132,2.23992,6.79412,2.58328,2.57844,0
3.10737,2.22421,6.79964,2.55879,2.57079,0
3.11349,2.20846,6.80517,2.53407,2.56314,0
3.11967,2.19268,6.81071,2.50910,2.55549,0
3.12591,2.17685,6.81626,2.48388,2.54784,0
3.13221,2.16098,6.82183,2.45841,2.54019,0
3.13857,2.14507,6.82740,2.43266,2.53255,0
3.14501,2.12912,6.83299,2.40665,2.52491,0
3.15151,2.11313,6.83859,2.38034,2.51728,0
3.15809,2.09710,6.84421,2.35375,2.50964,0
3.16474,2.08102,6.84984,2.32685,2.50201,0
3.17146,2.06491,6.85548,2.29963,2.49438,0
3.17827,2.04875,6.86113,2.27209,2.48676,0
3.18516,2.03255,6.86681,2.24421,2.47914,0
3.19213,2.01631,6.87249,2.21598,2.47152,0
3.19919,2.00002,6.87819,2.18738,2.46391,0
3.20635,1.98369,6.88391,2.15841,2.45630,0
3.21360,1.96732,6.88964,2.12904,2.44869,0
3.22095,1.95090,6.89538,2.09927,2.44109,0
3.22841,1.93445,6.90115,2.06906,2.43349,0
3.23597,1.91794,6.90693,2.03840,2.42590,0
3.24365,1.90140,6.91272,2.00728,2.41831,0
3.25145,1.88480,6.91854,1.97567,2.41073,0
3.25937,1.86817,6.92437,1.94354,2.40315,0
3.26742,1.85149,6.93022,1.91087,2.39558,0
3.27562,1.83476,6.93609,1.87764,2.38801,0
3.28395,1.81799,6.94198,1.84381,2.38045,0
3.29244,1.80117,6.94788,1.80934,2.37289,0
3.30109,1.78431,6.95381,1.77420,2.36534,0
3.30991,1.76740,6.95975,1.73836,2.35780,0
