time,x_pos,y_pos,velocity,rotation,action
0.00010,7.57096,0.45491,0.00000,-3.14159,16
0.00020,7.57096,0.45491,0.35466,-3.14159,0
0.04442,7.56308,0.45506,0.50156,3.14019,0
0.07569,7.55516,0.45548,0.61428,3.13753,0
0.10122,7.54720,0.45619,0.70931,3.13432,0
0.12333,7.53920,0.45717,0.79303,3.13078,0
0.14311,7.53116,0.45843,0.86872,3.12704,0
0.16117,7.52308,0.45997,0.93833,3.12313,0
0.17788,7.51496,0.46177,1.00312,3.11910,0
0.19351,7.50681,0.46385,1.06397,3.11497,0
0.20826,7.49862,0.46619,1.12152,3.11076,0
0.22224,7.49038,0.46879,1.17626,3.10647,0
0.23557,7.48212,0.47165,1.22856,3.10213,0
0.24834,7.47381,0.47477,1.27873,3.09774,0
0.26060,7.46546,0.47815,1.32700,3.09330,0
0.27242,7.45708,0.48178,1.37357,3.08881,0
0.28384,7.44866,0.48567,1.41862,3.08430,0
0.29490,7.44020,0.48980,1.46228,3.07974,0
0.30562,7.43171,0.49417,1.50467,3.07516,0
0.31605,7.42318,0.49879,1.54591,3.07055,0
0.32619,7.41461,0.50365,1.58607,3.06591,0
0.33608,7.40601,0.50875,1.62523,3.06126,0
0.34573,7.39737,0.51409,1.66348,3.05657,0
0.35516,7.38870,0.51966,1.70087,3.05187,0
0.36438,7.37999,0.52546,1.73745,3.04715,0
0.37341,7.37124,0.53149,1.77328,3.04241,0
0.38225,7.36246,0.53774,1.80839,3.03766,0
0.39092,7.35364,0.54422,1.84284,3.03289,0
0.39943,7.34480,0.55092,1.87666,3.02810,0
0.40779,7.33591,0.55784,1.90988,3.02330,0
0.41600,7.32699,0.56497,1.94253,3.01849,0
0.42408,7.31804,0.57232,1.97464,3.01366,0
0.43202,7.30905,0.57988,2.00623,3.00882,0
0.43984,7.30003,0.58765,2.03734,3.00397,0
0.44753,7.29098,0.59562,2.06798,2.99911,0
0.45512,7.28189,0.60380,2.09817,2.99424,0
0.46259,7.27277,0.61217,2.12793,2.98936,0
0.46996,7.26362,0.62075,2.15728,2.98447,0
0.47723,7.25443,0.62952,2.18624,2.97957,0
0.48441,7.24522,0.63849,2.21482,2.97466,0
0.49149,7.23596,0.64765,2.24304,2.96975,0
0.49848,7.22668,0.65699,2.27090,2.96482,0
0.50539,7.21737,0.66653,2.29843,2.95989,0
0.51221,7.20802,0.67624,2.32563,2.95495,0
0.51895,7.19865,0.68614,2.35252,2.95000,0
0.52562,7.18924,0.69622,2.37910,2.94504,0
0.53221,7.17980,0.70647,2.40539,2.94008,0
0.53873,7.17033,0.71690,2.43139,2.93511,0
0.54518,7.16083,0.72749,2.45712,2.93014,0
0.55157,7.15130,0.73826,2.48259,2.92516,0
0.55788,7.14174,0.74919,2.50779,2.92017,0
0.56414,7.13215,0.76029,2.53274,2.91518,0
0.57033,7.12253,0.77155,2.55745,2.91018,0
0.57646,7.11288,0.78296,2.58193,2.90517,0
0.58254,7.10320,0.79454,2.60617,2.90016,0
0.58856,7.09349,0.80626,2.63019,2.89515,0
0.59452,7.08375,0.81814,2.65400,2.89013,0
0.60043,7.07399,0.83017,2.67759,2.88510,0
0.60629,7.06419,0.84234,2.70097,2.88007,0
0.61209,7.05437,0.85466,2.72416,2.87504,0
0.61785,7.04452,0.86712,2.74715,2.87000,0
0.62356,7.03464,0.87971,2.76995,2.86496,0
0.62922,7.02473,0.89245,2.79256,2.85991,0
0.63484,7.01480,0.90531,2.81499,2.85486,0
0.64041,7.00484,0.91831,2.83724,2.84980,0
0.64594,6.99485,0.93144,2.85932,2.84474,0
0.65142,6.98484,0.94469,2.88123,2.83968,0
0.65686,6.97480,0.95807,2.90298,2.83461,0
0.66227,6.96473,0.97157,2.92456,2.82954,0
0.66763,6.95464,0.98519,2.94599,2.82447,0
0.67295,6.94452,0.99893,2.96726,2.81939,0
0.67824,6.93437,1.01277,2.98838,2.81431,0
0.68349,6.92420,1.02673,3.00935,2.80922,0
0.68870,6.91401,1.04080,3.03018,2.80413,0
0.69387,6.90378,1.05498,3.05086,2.79904,0
0.69902,6.89354,1.06926,3.07140,2.79394,0
0.70412,6.88327,1.08364,3.09181,2.78885,0
0.70919,6.87297,1.09812,3.11209,2.78374,0
0.71423,6.86265,1.11270,3.13223,2.77864,0
0.71924,6.85231,1.12737,3.15224,2.77353,0
0.72422,6.84194,1.14213,3.17213,2.76842,0
0.72916,6.83155,1.15698,3.19190,2.76331,0
0.73407,6.82113,1.17192,3.21154,2.75819,0
0.73896,6.81069,1.18695,3.23106,2.75307,0
0.74381,6.80023,1.20205,3.25047,2.74795,0
0.74864,6.78975,1.21723,3.26976,2.74283,0
0.75343,6.77924,1.23249,3.28894,2.73770,0
0.75820,6.76871,1.24783,3.30800,2.73257,0
0.76294,6.75816,1.26323,3.32696,2.72744,0
0.76766,6.74759,1.27871,3.34581,2.72230,0
0.77234,6.73699,1.29425,3.36455,2.71717,0
0.77701,6.72638,1.30985,3.38320,2.71203,0
0.78164,6.71574,1.32552,3.40173,2.70689,0
0.78625,6.70508,1.34125,3.42017,2.70174,0
0.79084,6.69440,1.35703,3.43851,2.69660,0
0.79540,6.68370,1.37287,3.45675,2.69145,0
0.79994,6.67298,1.38876,3.47490,2.68630,0
0.80445,6.66223,1.40469,3.49295,2.68114,0
0.80894,6.65147,1.42068,3.51091,2.67599,0
0.81341,6.64069,1.43671,3.52878,2.67083,0
0.81785,6.62989,1.45278,3.54655,2.66567,0
0.82227,6.61906,1.46889,3.56424,2.66051,0
0.82667,6.60822,1.48504,3.58184,2.65535,0
0.83105,6.59736,1.50122,3.59936,2.65018,0
0.83541,6.58648,1.51743,3.61679,2.64502,0
0.83975,6.57559,1.53367,3.63414,2.63985,0
0.84406,6.56467,1.54994,3.65140,2.63468,0
0.84836,6.55374,1.56623,3.66858,2.62950,0
0.85263,6.54278,1.58255,3.68569,2.62433,0
0.85689,6.53181,1.59888,3.70271,2.61915,0
0.86112,6.52083,1.61524,3.71966,2.61399,0
0.86534,6.50982,1.63160,3.73653,2.60887,0
0.86954,6.49880,1.64798,3.75332,2.60381,0
0.87372,6.48776,1.66437,3.77004,2.59879,0
0.87788,6.47670,1.68076,3.78668,2.59381,0
0.88202,6.46563,1.69716,3.77004,2.58889,0
0.88618,6.45454,1.71356,3.75332,2.58396,0
0.89036,6.44343,1.72996,3.73653,2.57904,0
0.89455,6.43231,1.74636,3.71966,2.57412,0
0.89877,6.42118,1.76275,3.70271,2.56921,0
0.90301,6.41002,1.77913,3.68569,2.56430,0
0.90726,6.39885,1.79550,3.66858,2.55939,0
0.91154,6.38767,1.81186,3.65140,2.55448,0
0.91583,6.37647,1.82821,3.63414,2.54958,0
0.92015,6.36526,1.84453,3.61679,2.54468,0
0.92448,6.35403,1.86084,3.59936,2.53979,0
0.92884,6.34279,1.87712,3.58184,2.53489,0
0.93322,6.33153,1.89338,3.56424,2.53000,0
0.93762,6.32026,1.90960,3.54655,2.52512,0
0.94204,6.30898,1.92580,3.52878,2.52023,0
0.94649,6.29768,1.94197,3.51091,2.51535,0
0.95095,6.28637,1.95810,3.49295,2.51048,0
0.95544,6.27505,1.97419,3.47490,2.50561,0
0.95996,6.26371,1.99024,3.45675,2.50074,0
0.96449,6.25236,2.00625,3.43851,2.49587,0
0.96906,6.24100,2.02221,3.42017,2.49101,0
0.97364,6.22963,2.03813,3.40173,2.48615,0
0.97825,6.21824,2.05400,3.38320,2.48130,0
0.98289,6.20684,2.06981,3.36455,2.47645,0
0.98755,6.19543,2.08556,3.34581,2.47160,0
0.99224,6.18401,2.10126,3.32696,2.46676,0
0.99695,6.17258,2.11690,3.30800,2.46192,0
1.00169,6.16114,2.13248,3.28894,2.45709,0
1.00646,6.14968,2.14799,3.26976,2.45226,0
1.01126,6.13822,2.16343,3.25047,2.44744,0
1.01608,6.12674,2.17880,3.23106,2.44262,0
1.02094,6.11526,2.19410,3.21154,2.43780,0
1.02582,6.10376,2.20933,3.19190,2.43299,0
1.03073,6.09226,2.22447,3.17213,2.42818,0
1.03568,6.08074,2.23954,3.15224,2.42338,0
1.04065,6.06922,2.25452,3.13223,2.41858,0
1.04566,6.05769,2.26942,3.11209,2.41379,0
1.05070,6.04615,2.28423,3.09181,2.40900,0
1.05577,6.03460,2.29895,3.07140,2.40422,0
1.06088,6.02304,2.31358,3.05086,2.39944,0
1.06602,6.01147,2.32811,3.03018,2.39467,0
1.07119,5.99989,2.34255,3.00935,2.38990,0
1.07641,5.98831,2.35688,2.98838,2.38514,0
1.08165,5.97672,2.37111,2.96726,2.38039,0
1.08694,5.96512,2.38524,2.94599,2.37564,0
1.09226,5.95352,2.39926,2.92456,2.37090,0
1.09763,5.94190,2.41317,2.90298,2.36616,0
1.10303,5.93028,2.42696,2.88123,2.36143,0
1.10847,5.91866,2.44064,2.85932,2.35670,0
1.11396,5.90703,2.45421,2.83724,2.35198,0
1.11949,5.89539,2.46765,2.81499,2.34727,0
1.12506,5.88374,2.48097,2.79256,2.34257,0
1.13067,5.87209,2.49416,2.76995,2.33787,0
1.13634,5.86043,2.50723,2.74715,2.33318,0
1.14204,5.84877,2.52017,2.72416,2.32849,0
1.14780,5.83711,2.53298,2.70097,2.32382,0
1.15361,5.82543,2.54565,2.67759,2.31915,0
1.15947,5.81376,2.55818,2.65400,2.31449,0
1.16537,5.80208,2.57057,2.63019,2.30984,0
1.17134,5.79039,2.58282,2.60617,2.30519,0
1.17736,5.77870,2.59493,2.58193,2.30055,0
1.18343,5.76701,2.60688,2.55745,2.29593,0
1.18956,5.75531,2.61869,2.53274,2.29131,0
1.19575,5.74361,2.63035,2.50779,2.28670,0
1.20201,5.73191,2.64185,2.48259,2.28210,0
1.20833,5.72020,2.65319,2.45712,2.27751,0
1.21471,5.70849,2.66437,2.43139,2.27293,0
1.22116,5.69678,2.67539,2.40539,2.26836,0
1.22768,5.68506,2.68625,2.37910,2.26380,0
1.23427,5.67334,2.69693,2.35252,2.25926,0
1.24094,5.66162,2.70745,2.32563,2.25472,0
1.24768,5.64990,2.71780,2.29843,2.25020,0
1.25451,5.63818,2.72797,2.27090,2.24569,0
1.26141,5.62645,2.73796,2.24304,2.24119,0
1.26840,5.61473,2.74777,2.21482,2.23670,0
1.27549,5.60300,2.75740,2.18624,2.23223,0
1.28266,5.59127,2.76685,2.15728,2.22777,0
1.28993,5.57955,2.77611,2.12793,2.22333,0
1.29730,5.56782,2.78518,2.09817,2.21891,0
1.30478,5.55609,2.79405,2.06798,2.21450,0
1.31236,5.54436,2.80274,2.03734,2.21010,0
1.32006,5.53263,2.81122,2.00623,2.20573,0
1.32788,5.52090,2.81950,1.97464,2.20137,0
1.33582,5.50917,2.82759,1.94253,2.19703,0
1.34389,5.49745,2.83546,1.90988,2.19271,0
1.35210,5.48572,2.84313,1.87666,2.18842,0
1.36046,5.47400,2.85059,1.84284,2.18414,0
1.36897,5.46227,2.85784,1.80839,2.17989,0
1.37764,5.45055,2.86488,1.77328,2.17567,0
1.38649,5.43883,2.87169,1.73745,2.17147,0
1.39551,5.42712,2.87829,1.70087,2.16730,0
1.40474,5.41540,2.88466,1.66348,2.16316,0
1.41416,5.40369,2.89081,1.62523,2.15905,0
1.42381,5.39198,2.89673,1.58607,2.15498,0
1.43370,5.38027,2.90243,1.54591,2.15094,0
1.44385,5.36857,2.90789,1.50467,2.14694,0
1.45427,5.35687,2.91311,1.46228,2.14299,0
1.46500,5.34517,2.91810,1.41862,2.13908,0
1.47605,5.33348,2.92285,1.37357,2.13522,0
1.48747,5.32179,2.92736,1.32700,2.13142,0
1.49929,5.31010,2.93162,1.27873,2.12769,0
1.51155,5.29842,2.93563,1.22856,2.12402,0
1.52432,5.28675,2.93940,1.17626,2.12043,0
1.53765,5.27507,2.94291,1.12152,2.11692,0
1.55164,5.26341,2.94617,1.06397,2.11352,0
1.56638,5.25175,2.94917,1.00312,2.11024,0
1.58201,5.24009,2.95191,0.93833,2.10709,0
1.59873,5.22844,2.95439,0.86872,2.10411,0
1.61678,5.21680,2.95661,0.79303,2.10134,0
1.63656,5.20516,2.95856,0.70931,2.09884,0
1.65867,5.19353,2.96024,0.61428,2.09670,0
1.68420,5.18190,2.96164,0.50156,2.09510,0
1.71547,5.17028,2.96278,0.35466,2.09440,0
1.80392,5.13547,2.96450,0.00000,2.09440,36996
1.80402,5.13547,2.96450,0.35466,2.09440,0
1.84808,5.14663,2.94487,0.50156,2.09586,0
1.87923,5.15756,2.92537,0.61428,2.09866,0
1.90467,5.16825,2.90600,0.70931,2.10203,0
1.92670,5.17871,2.88676,0.79303,2.10573,0
1.94641,5.18894,2.86764,0.86872,2.10966,0
1.96440,5.19893,2.84865,0.93833,2.11376,0
1.98105,5.20870,2.82979,1.00312,2.11799,0
1.99663,5.21823,2.81106,1.06397,2.12232,0
2.01132,5.22754,2.79245,1.12152,2.12674,0
2.02525,5.23662,2.77396,1.17626,2.13124,0
2.03854,5.24547,2.75561,1.22856,2.13579,0
2.05125,5.25410,2.73737,1.27873,2.14040,0
2.06348,5.26250,2.71926,1.32700,2.14506,0
2.07525,5.27068,2.70128,1.37357,2.14976,0
2.08663,5.27863,2.68342,1.41862,2.15450,0
2.09764,5.28636,2.66568,1.46228,2.15928,0
2.10833,5.29388,2.64806,1.50467,2.16408,0
2.11872,5.30117,2.63057,1.54591,2.16892,0
2.12882,5.30824,2.61320,1.58607,2.17378,0
2.13868,5.31509,2.59594,1.62523,2.17867,0
2.14829,5.32173,2.57881,1.66348,2.18358,0
2.15769,5.32815,2.56180,1.70087,2.18851,0
2.16687,5.33436,2.54491,1.73745,2.19346,0
2.17587,5.34035,2.52815,1.77328,2.19844,0
2.18468,5.34613,2.51149,1.80839,2.20342,0
2.19332,5.35169,2.49496,1.84284,2.20843,0
2.20180,5.35705,2.47855,1.87666,2.21345,0
2.21013,5.36219,2.46225,1.90988,2.21848,0
2.21831,5.36712,2.44608,1.94253,2.22353,0
2.22635,5.37185,2.43001,1.97464,2.22860,0
2.23427,5.37636,2.41407,2.00623,2.23367,0
2.24206,5.38067,2.39824,2.03734,2.23876,0
2.24973,5.38478,2.38253,2.06798,2.24386,0
2.25728,5.38868,2.36693,2.09817,2.24897,0
2.26473,5.39237,2.35145,2.12793,2.25409,0
2.27208,5.39586,2.33609,2.15728,2.25922,0
2.27932,5.39915,2.32083,2.18624,2.26436,0
2.28647,5.40224,2.30569,2.21482,2.26951,0
2.29352,5.40513,2.29067,2.24304,2.27466,0
2.30049,5.40782,2.27575,2.27090,2.27983,0
2.30737,5.41031,2.26095,2.29843,2.28501,0
2.31417,5.41260,2.24627,2.32563,2.29019,0
2.32089,5.41469,2.23169,2.35252,2.29538,0
2.32753,5.41659,2.21722,2.37910,2.30058,0
2.33410,5.41830,2.20287,2.40539,2.30578,0
2.34060,5.41981,2.18862,2.43139,2.31100,0
2.34702,5.42113,2.17449,2.45712,2.31621,0
2.35338,5.42226,2.16046,2.48259,2.32144,0
2.35968,5.42320,2.14655,2.50779,2.32667,0
2.36591,5.42394,2.13274,2.53274,2.33191,0
2.37208,5.42450,2.11904,2.55745,2.33715,0
2.37819,5.42487,2.10545,2.58193,2.34240,0
2.38424,5.42505,2.09197,2.60617,2.34766,0
2.39024,5.42505,2.07859,2.63019,2.35292,0
2.39618,5.42486,2.06532,2.65400,2.35818,0
2.40207,5.42449,2.05215,2.67759,2.36346,0
2.40790,5.42393,2.03909,2.70097,2.36873,0
2.41369,5.42319,2.02614,2.72416,2.37401,0
2.41943,5.42227,2.01329,2.74715,2.37930,0
2.42511,5.42117,2.00055,2.76995,2.38459,0
2.43076,5.41989,1.98791,2.79256,2.38988,0
2.43635,5.41843,1.97537,2.81499,2.39518,0
2.44190,5.41680,1.96294,2.83724,2.40049,0
2.44741,5.41499,1.95061,2.85932,2.40579,0
2.45288,5.41300,1.93838,2.88123,2.41111,0
2.45830,5.41083,1.92625,2.90298,2.41642,0
2.46368,5.40850,1.91423,2.92456,2.42174,0
2.46903,5.40599,1.90230,2.94599,2.42707,0
2.47433,5.40330,1.89048,2.96726,2.43239,0
2.47960,5.40045,1.87876,2.98838,2.43772,0
2.48483,5.39743,1.86713,3.00935,2.44306,0
2.49002,5.39423,1.85561,3.03018,2.44840,0
2.49518,5.39087,1.84418,3.05086,2.45374,0
2.50030,5.38734,1.83286,3.07140,2.45908,0
2.50539,5.38365,1.82163,3.09181,2.46443,0
2.51044,5.37979,1.81050,3.11209,2.46978,0
2.51546,5.37576,1.79946,3.13223,2.47514,0
2.52045,5.37158,1.78852,3.15224,2.48050,0
2.52541,5.36723,1.77768,3.17213,2.48586,0
2.53033,5.36271,1.76694,3.19190,2.49122,0
2.53523,5.35804,1.75629,3.21154,2.49659,0
2.54009,5.35321,1.74574,3.23106,2.50196,0
2.54493,5.34822,1.73528,3.25047,2.50733,0
2.54974,5.34307,1.72491,3.26976,2.51271,0
2.55452,5.33776,1.71464,3.28894,2.51808,0
2.55927,5.33230,1.70446,3.30800,2.52347,0
2.56399,5.32668,1.69438,3.32696,2.52885,0
2.56869,5.32091,1.68439,3.34581,2.53424,0
2.57336,5.31498,1.67448,3.36455,2.53962,0
2.57801,5.30891,1.66468,3.38320,2.54502,0
2.58262,5.30268,1.65496,3.40173,2.55041,0
2.58722,5.29630,1.64533,3.42017,2.55580,0
2.59179,5.28977,1.63580,3.43851,2.56120,0
2.59633,5.28310,1.62635,3.45675,2.56660,0
2.60085,5.27628,1.61700,3.47490,2.57201,0
2.60535,5.26930,1.60773,3.49295,2.57741,0
2.60982,5.26219,1.59855,3.51091,2.58282,0
2.61427,5.25493,1.58946,3.52878,2.58823,0
2.61870,5.24752,1.58046,3.54655,2.59364,0
2.62311,5.23998,1.57154,3.56424,2.59906,0
2.62749,5.23229,1.56272,3.58184,2.60447,0
2.63186,5.22446,1.55398,3.59936,2.60989,0
2.63620,5.21649,1.54532,3.61679,2.61531,0
2.64052,5.20838,1.53675,3.63414,2.62073,0
2.64482,5.20013,1.52827,3.65140,2.62616,0
2.64910,5.19175,1.51987,3.66858,2.63159,0
2.65336,5.18323,1.51156,3.68569,2.63701,0
2.65760,5.17458,1.50333,3.70271,2.64244,0
2.66182,5.16579,1.49518,3.71966,2.64788,0
2.66602,5.15686,1.48712,3.73653,2.65331,0
2.67020,5.14781,1.47914,3.75332,2.65875,0
2.67436,5.13862,1.47124,3.77004,2.66418,0
2.67851,5.12930,1.46343,3.78668,2.66962,0
2.68264,5.11986,1.45569,3.80325,2.67506,0
2.68674,5.11028,1.44804,3.81975,2.68051,0
2.69084,5.10058,1.44047,3.83618,2.68595,0
2.69491,5.09075,1.43297,3.85254,2.69140,0
2.69897,5.08079,1.42556,3.86883,2.69685,0
2.70300,5.07071,1.41823,3.88505,2.70230,0
2.70703,5.06051,1.41098,3.90121,2.70775,0
2.71103,5.05018,1.40380,3.91730,2.71320,0
2.71502,5.03973,1.39671,3.93332,2.71866,0
2.71899,5.02916,1.38969,3.94927,2.72411,0
2.72295,5.01847,1.38275,3.96517,2.72957,0
2.72689,5.00766,1.37588,3.98100,2.73503,0
2.73082,4.99673,1.36909,3.99676,2.74049,0
2.73473,4.98569,1.36238,4.01247,2.74595,0
2.73862,4.97453,1.35574,4.02811,2.75141,0
2.74250,4.96325,1.34918,4.04369,2.75688,0
2.74637,4.95186,1.34270,4.05922,2.76235,0
2.75022,4.94035,1.33628,4.07468,2.76781,0
2.75405,4.92874,1.32995,4.09008,2.77328,0
2.75787,4.91701,1.32368,4.10543,2.77875,0
2.76168,4.90517,1.31749,4.12072,2.78423,0
2.76547,4.89322,1.31137,4.13596,2.78970,0
2.76925,4.88116,1.30533,4.15113,2.79518,0
2.77301,4.86899,1.29935,4.16626,2.80065,0
2.77676,4.85672,1.29345,4.18132,2.80613,0
2.78050,4.84434,1.28762,4.19634,2.81161,0
2.78422,4.83185,1.28185,4.21130,2.81709,0
2.78793,4.81926,1.27616,4.22621,2.82257,0
2.79163,4.80657,1.27054,4.24106,2.82805,0
2.79532,4.79378,1.26499,4.25586,2.83354,0
2.79899,4.78088,1.25951,4.27062,2.83902,0
2.80265,4.76789,1.25409,4.28532,2.84451,0
2.80629,4.75479,1.24874,4.29997,2.85000,0
2.80993,4.74160,1.24346,4.31457,2.85548,0
2.81355,4.72831,1.23825,4.32912,2.86097,0
2.81716,4.71492,1.23311,4.34362,2.86647,0
2.82076,4.70144,1.22803,4.35808,2.87196,0
2.82434,4.68786,1.22301,4.37248,2.87745,0
2.82792,4.67419,1.21807,4.38684,2.88295,0
2.83148,4.66042,1.21318,4.40116,2.88844,0
2.83503,4.64657,1.20837,4.41542,2.89394,0
2.83857,4.63262,1.20361,4.42964,2.89944,0
2.84210,4.61858,1.19892,4.44382,2.90494,0
2.84561,4.60446,1.19430,4.45795,2.91044,0
2.84912,4.59024,1.18973,4.47203,2.91594,0
2.85261,4.57594,1.18523,4.48607,2.92144,0
2.85610,4.56155,1.18079,4.50007,2.92694,0
2.85957,4.54708,1.17641,4.51402,2.93245,0
2.86303,4.53252,1.17210,4.52794,2.93795,0
2.86648,4.51788,1.16784,4.54180,2.94346,0
2.86992,4.50316,1.16365,4.55563,2.94897,0
2.87335,4.48835,1.15951,4.56941,2.95448,0
2.87677,4.47347,1.15544,4.58316,2.95998,0
2.88018,4.45850,1.15142,4.59686,2.96550,0
2.88358,4.44346,1.14747,4.61052,2.97101,0
2.88697,4.42834,1.14357,4.62414,2.97652,0
2.89035,4.41314,1.13972,4.63772,2.98203,0
2.89372,4.39787,1.13594,4.65126,2.98755,0
2.89708,4.38252,1.13221,4.66476,2.99306,0
2.90043,4.36710,1.12854,4.67822,2.99858,0
2.90377,4.35160,1.12493,4.69165,3.00410,0
2.90710,4.33603,1.12137,4.70503,3.00961,0
2.91042,4.32040,1.11787,4.71838,3.01513,0
2.91373,4.30469,1.11442,4.73169,3.02065,0
2.91704,4.28891,1.11103,4.74496,3.02617,0
2.92033,4.27306,1.10769,4.75820,3.03170,0
2.92361,4.25715,1.10440,4.77140,3.03722,0
2.92689,4.24117,1.10117,4.77140,3.04274,0
2.93016,4.22512,1.09799,4.75820,3.04828,0
2.93345,4.20901,1.09486,4.74496,3.05385,0
2.93674,4.19284,1.09179,4.73169,3.05946,0
2.94004,4.17660,1.08877,4.71838,3.06509,0
2.94336,4.16031,1.08579,4.70503,3.07076,0
2.94668,4.14395,1.08287,4.69165,3.07646,0
2.95001,4.12753,1.08000,4.67822,3.08219,0
2.95335,4.11105,1.07718,4.66476,3.08793,0
2.95670,4.09452,1.07440,4.65126,3.09367,0
2.96006,4.07792,1.07168,4.63772,3.09941,0
2.96343,4.06128,1.06901,4.62414,3.10515,0
2.96681,4.04457,1.06638,4.61052,3.11089,0
2.97020,4.02782,1.06380,4.59686,3.11662,0
2.97360,4.01101,1.06127,4.58316,3.12236,0
2.97701,3.99414,1.05878,4.56941,3.12810,0
2.98043,3.97723,1.05635,4.55563,3.13384,0
2.98386,3.96026,1.05395,4.54180,3.13957,0
2.98730,3.94325,1.05161,4.52794,-3.13788,0
2.99075,3.92619,1.04931,4.51402,-3.13214,0
2.99421,3.90908,1.04705,4.50007,-3.12640,0
2.99768,3.89192,1.04484,4.48607,-3.12067,0
3.00117,3.87472,1.04267,4.47203,-3.11493,0
3.00466,3.85747,1.04054,4.45795,-3.10920,0
3.00816,3.84018,1.03846,4.44382,-3.10346,0
3.01168,3.82285,1.03642,4.42964,-3.09773,0
3.01521,3.80547,1.03442,4.41542,-3.09199,0
3.01875,3.78806,1.03247,4.40116,-3.08626,0
3.02230,3.77060,1.03056,4.38684,-3.08053,0
3.02586,3.75311,1.02868,4.37248,-3.07479,0
3.02943,3.73557,1.02685,4.35808,-3.06906,0
3.03302,3.71800,1.02506,4.34362,-3.06333,0
3.03662,3.70039,1.02331,4.32912,-3.05760,0
3.04023,3.68275,1.02159,4.31457,-3.05186,0
3.04385,3.66508,1.01992,4.29997,-3.04613,0
3.04748,3.64737,1.01828,4.28532,-3.04040,0
3.05113,3.62962,1.01668,4.27062,-3.03467,0
3.05479,3.61185,1.01512,4.25586,-3.02894,0
3.05846,3.59405,1.01360,4.24106,-3.02321,0
3.06215,3.57621,1.01211,4.22621,-3.01748,0
3.06584,3.55835,1.01066,4.21130,-3.01175,0
3.06955,3.54046,1.00925,4.19634,-3.00603,0
3.07328,3.52254,1.00787,4.18132,-3.00030,0
3.07702,3.50460,1.00653,4.16626,-2.99457,0
3.08077,3.48663,1.00522,4.15113,-2.98884,0
3.08453,3.46864,1.00394,4.13596,-2.98312,0
3.08831,3.45062,1.00270,4.12072,-2.97739,0
3.09210,3.43259,1.00149,4.10543,-2.97166,0
3.09591,3.41453,1.00032,4.09008,-2.96594,0
3.09973,3.39645,0.99917,4.07468,-2.96021,0
3.10356,3.37835,0.99806,4.05922,-2.95449,0
3.10741,3.36024,0.99698,4.04369,-2.94876,0
3.11128,3.34210,0.99594,4.02811,-2.94304,0
3.11516,3.32395,0.99492,4.01247,-2.93731,0
3.11905,3.30579,0.99393,3.99676,-2.93159,0
3.12296,3.28761,0.99298,3.98100,-2.92587,0
3.12689,3.26942,0.99205,3.96517,-2.92015,0
3.13083,3.25121,0.99115,3.94927,-2.91443,0
3.13478,3.23299,0.99028,3.93332,-2.90870,0
3.13876,3.21476,0.98944,3.91730,-2.90298,0
3.14275,3.19653,0.98863,3.90121,-2.89726,0
3.14675,3.17828,0.98784,3.88505,-2.89154,0
3.15077,3.16002,0.98708,3.86883,-2.88582,0
