time,x_pos,y_pos,velocity,rotation,action
0.00010,7.56503,0.34807,0.00000,-3.14159,16
0.00020,7.56503,0.34807,0.35446,-3.14159,0
0.04431,7.55729,0.34816,0.50129,3.14023,0
0.07551,7.54947,0.34843,0.61395,3.13762,0
0.10097,7.54155,0.34887,0.70892,3.13449,0
0.12303,7.53356,0.34949,0.79260,3.13104,0
0.14276,7.52547,0.35029,0.86825,3.12738,0
0.16077,7.51731,0.35126,0.93782,3.12357,0
0.17744,7.50905,0.35240,1.00257,3.11963,0
0.19304,7.50072,0.35372,1.06339,3.11560,0
0.20774,7.49230,0.35520,1.12091,3.11148,0
0.22169,7.48381,0.35686,1.17562,3.10730,0
0.23499,7.47523,0.35868,1.22789,3.10306,0
0.24773,7.46657,0.36067,1.27803,3.09877,0
0.25996,7.45783,0.36283,1.32628,3.09443,0
0.27175,7.44902,0.36515,1.37283,3.09006,0
0.28314,7.44013,0.36764,1.41785,3.08565,0
0.29417,7.43116,0.37029,1.46149,3.08120,0
0.30487,7.42212,0.37310,1.50386,3.07673,0
0.31527,7.41300,0.37608,1.54507,3.07223,0
0.32539,7.40381,0.37921,1.58520,3.06770,0
0.33525,7.39454,0.38251,1.62435,3.06315,0
0.34488,7.38521,0.38596,1.66258,3.05858,0
0.35428,7.37580,0.38956,1.69994,3.05399,0
0.36348,7.36632,0.39333,1.73650,3.04938,0
0.37248,7.35678,0.39724,1.77231,3.04475,0
0.38131,7.34716,0.40132,1.80741,3.04011,0
0.38996,7.33748,0.40554,1.84184,3.03545,0
0.39845,7.32773,0.40991,1.87564,3.03078,0
0.40678,7.31792,0.41444,1.90884,3.02609,0
0.41498,7.30803,0.41912,1.94147,3.02139,0
0.42303,7.29809,0.42394,1.97356,3.01668,0
0.43095,7.28808,0.42891,2.00514,3.01196,0
0.43875,7.27801,0.43402,2.03623,3.00722,0
0.44643,7.26788,0.43929,2.06685,3.00248,0
0.45399,7.25768,0.44469,2.09703,2.99772,0
0.46145,7.24743,0.45024,2.12677,2.99295,0
0.46880,7.23712,0.45593,2.15611,2.98818,0
0.47606,7.22674,0.46176,2.18505,2.98339,0
0.48321,7.21631,0.46773,2.21362,2.97860,0
0.49028,7.20583,0.47384,2.24182,2.97380,0
0.49725,7.19529,0.48008,2.26967,2.96899,0
0.50414,7.18469,0.48647,2.29718,2.96417,0
0.51095,7.17404,0.49298,2.32436,2.95935,0
0.51767,7.16333,0.49964,2.35124,2.95452,0
0.52432,7.15257,0.50642,2.37780,2.94968,0
0.53090,7.14176,0.51334,2.40408,2.94484,0
0.53740,7.13091,0.52039,2.43007,2.93998,0
0.54384,7.11999,0.52756,2.45579,2.93513,0
0.55021,7.10904,0.53487,2.48124,2.93026,0
0.55651,7.09803,0.54231,2.50643,2.92539,0
0.56275,7.08697,0.54987,2.53137,2.92052,0
0.56892,7.07587,0.55755,2.55606,2.91564,0
0.57504,7.06473,0.56537,2.58052,2.91075,0
0.58110,7.05353,0.57330,2.60475,2.90586,0
0.58710,7.04230,0.58136,2.62876,2.90096,0
0.59305,7.03102,0.58954,2.65255,2.89606,0
0.59895,7.01970,0.59784,2.67613,2.89115,0
0.60479,7.00833,0.60625,2.69950,2.88624,0
0.61058,6.99693,0.61479,2.72268,2.88133,0
0.61632,6.98548,0.62344,2.74565,2.87641,0
0.62202,6.97400,0.63221,2.76844,2.87148,0
0.62767,6.96248,0.64110,2.79104,2.86656,0
0.63327,6.95092,0.65010,2.81346,2.86162,0
0.63883,6.93933,0.65921,2.83570,2.85669,0
0.64434,6.92770,0.66843,2.85777,2.85175,0
0.64981,6.91603,0.67776,2.87967,2.84680,0
0.65524,6.90433,0.68721,2.90140,2.84185,0
0.66063,6.89260,0.69676,2.92297,2.83690,0
0.66598,6.88083,0.70641,2.94438,2.83195,0
0.67129,6.86904,0.71618,2.96564,2.82699,0
0.67656,6.85721,0.72605,2.98675,2.82203,0
0.68180,6.84535,0.73602,3.00771,2.81706,0
0.68700,6.83347,0.74610,3.02853,2.81209,0
0.69216,6.82155,0.75628,3.04920,2.80712,0
0.69729,6.80961,0.76656,3.06973,2.80215,0
0.70238,6.79764,0.77694,3.09013,2.79717,0
0.70744,6.78565,0.78742,3.11039,2.79219,0
0.71247,6.77363,0.79800,3.13053,2.78720,0
0.71747,6.76159,0.80867,3.15053,2.78221,0
0.72243,6.74953,0.81944,3.17041,2.77723,0
0.72736,6.73744,0.83030,3.19016,2.77223,0
0.73226,6.72533,0.84126,3.20979,2.76724,0
0.73713,6.71321,0.85231,3.22930,2.76224,0
0.74198,6.70106,0.86345,3.24870,2.75724,0
0.74679,6.68889,0.87468,3.26798,2.75223,0
0.75157,6.67671,0.88600,3.28715,2.74723,0
0.75633,6.66451,0.89741,3.30620,2.74222,0
0.76106,6.65229,0.90890,3.32515,2.73721,0
0.76576,6.64006,0.92048,3.34399,2.73220,0
0.77044,6.62781,0.93215,3.36272,2.72718,0
0.77509,6.61554,0.94390,3.38135,2.72216,0
0.77971,6.60327,0.95573,3.39988,2.71714,0
0.78431,6.59098,0.96764,3.41831,2.71212,0
0.78889,6.57869,0.97964,3.43664,2.70709,0
0.79344,6.56638,0.99171,3.45487,2.70207,0
0.79796,6.55406,1.00386,3.47301,2.69704,0
0.80246,6.54174,1.01609,3.49105,2.69201,0
0.80694,6.52940,1.02840,3.50900,2.68697,0
0.81140,6.51706,1.04078,3.52685,2.68194,0
0.81583,6.50471,1.05323,3.54462,2.67690,0
0.82024,6.49236,1.06576,3.56230,2.67186,0
0.82463,6.48001,1.07836,3.57989,2.66682,0
0.82900,6.46764,1.09103,3.59740,2.66178,0
0.83335,6.45528,1.10377,3.61482,2.65673,0
0.83767,6.44292,1.11658,3.63216,2.65168,0
0.84198,6.43055,1.12946,3.64941,2.64663,0
0.84626,6.41818,1.14240,3.66659,2.64158,0
0.85053,6.40582,1.15541,3.68368,2.63653,0
0.85477,6.39345,1.16848,3.70069,2.63148,0
0.85900,6.38109,1.18162,3.71763,2.62642,0
0.86320,6.36873,1.19482,3.73449,2.62136,0
0.86739,6.35638,1.20808,3.75128,2.61799,0
0.87156,6.34403,1.22140,3.76799,2.61797,0
0.87571,6.33169,1.23477,3.78462,2.61793,0
0.87984,6.31935,1.24821,3.80118,2.61786,0
0.88395,6.30702,1.26171,3.81768,2.61777,0
0.88805,6.29470,1.27526,3.81768,2.61765,0
0.89215,6.28238,1.28886,3.80118,2.61752,0
0.89626,6.27008,1.30252,3.78462,2.61735,0
0.90039,6.25779,1.31623,3.76799,2.61717,0
0.90454,6.24551,1.32999,3.75128,2.61696,0
0.90871,6.23324,1.34380,3.73449,2.61672,0
0.91290,6.22098,1.35767,3.71763,2.61646,0
0.91710,6.20874,1.37158,3.70069,2.61617,0
0.92133,6.19652,1.38554,3.68368,2.61586,0
0.92557,6.18431,1.39954,3.66659,2.61552,0
0.92984,6.17212,1.41359,3.64941,2.61515,0
0.93412,6.15994,1.42768,3.63216,2.61475,0
0.93843,6.14778,1.44182,3.61482,2.61433,0
0.94275,6.13564,1.45600,3.59740,2.61388,0
0.94710,6.12353,1.47021,3.57989,2.61340,0
0.95147,6.11143,1.48447,3.56230,2.61289,0
0.95586,6.09935,1.49877,3.54462,2.61235,0
0.96027,6.08730,1.51310,3.52685,2.61179,0
0.96470,6.07527,1.52748,3.50900,2.61119,0
0.96916,6.06327,1.54188,3.49105,2.61056,0
0.97364,6.05129,1.55632,3.47301,2.60990,0
0.97814,6.03933,1.57080,3.45487,2.60921,0
0.98266,6.02740,1.58530,3.43664,2.60849,0
0.98721,6.01550,1.59984,3.41831,2.60773,0
0.99179,6.00363,1.61441,3.39988,2.60694,0
0.99639,5.99179,1.62900,3.38135,2.60612,0
1.00101,5.97998,1.64363,3.36272,2.60526,0
1.00566,5.96820,1.65828,3.34399,2.60437,0
1.01034,5.95645,1.67296,3.32515,2.60344,0
1.01504,5.94473,1.68766,3.30620,2.60248,0
1.01977,5.93305,1.70238,3.28715,2.60148,0
1.02453,5.92140,1.71713,3.26798,2.60044,0
1.02931,5.90979,1.73190,3.24870,2.59937,0
1.03412,5.89821,1.74669,3.22930,2.59825,0
1.03897,5.88667,1.76150,3.20979,2.59710,0
1.04384,5.87517,1.77633,3.19016,2.59591,0
1.04874,5.86371,1.79117,3.17041,2.59467,0
1.05367,5.85228,1.80603,3.15053,2.59340,0
1.05863,5.84090,1.82091,3.13053,2.59208,0
1.06363,5.82956,1.83580,3.11039,2.59072,0
1.06866,5.81825,1.85070,3.09013,2.58931,0
1.07372,5.80700,1.86561,3.06973,2.58786,0
1.07881,5.79578,1.88054,3.04920,2.58637,0
1.08394,5.78461,1.89547,3.02853,2.58482,0
1.08910,5.77349,1.91042,3.00771,2.58323,0
1.09430,5.76241,1.92537,2.98675,2.58159,0
1.09953,5.75138,1.94032,2.96564,2.57991,0
1.10481,5.74040,1.95529,2.94438,2.57817,0
1.11012,5.72946,1.97025,2.92297,2.57638,0
1.11547,5.71858,1.98522,2.90140,2.57453,0
1.12086,5.70774,2.00020,2.87967,2.57263,0
1.12629,5.69696,2.01517,2.85777,2.57068,0
1.13176,5.68623,2.03014,2.83570,2.56867,0
1.13727,5.67555,2.04511,2.81346,2.56660,0
1.14283,5.66492,2.06008,2.79104,2.56447,0
1.14843,5.65435,2.07505,2.76844,2.56229,0
1.15408,5.64384,2.09001,2.74565,2.56004,0
1.15978,5.63338,2.10497,2.72268,2.55772,0
1.16552,5.62298,2.11992,2.69950,2.55534,0
1.17131,5.61264,2.13486,2.67613,2.55290,0
1.17715,5.60235,2.14980,2.65255,2.55038,0
1.18305,5.59213,2.16472,2.62876,2.54779,0
1.18900,5.58197,2.17963,2.60475,2.54513,0
1.19500,5.57186,2.19454,2.58052,2.54240,0
1.20106,5.56182,2.20943,2.55606,2.53959,0
1.20718,5.55185,2.22430,2.53137,2.53670,0
1.21335,5.54193,2.23916,2.50643,2.53373,0
1.21959,5.53209,2.25400,2.48124,2.53068,0
1.22589,5.52230,2.26883,2.45579,2.52754,0
1.23226,5.51259,2.28364,2.43007,2.52431,0
1.23870,5.50294,2.29843,2.40408,2.52099,0
1.24520,5.49336,2.31320,2.37780,2.51757,0
1.25178,5.48384,2.32794,2.35124,2.51406,0
1.25843,5.47440,2.34267,2.32436,2.51045,0
1.26515,5.46503,2.35737,2.29718,2.50673,0
1.27196,5.45573,2.37205,2.26967,2.50290,0
1.27885,5.44650,2.38670,2.24182,2.49896,0
1.28582,5.43735,2.40132,2.21362,2.49490,0
1.29289,5.42827,2.41592,2.18505,2.49073,0
1.30004,5.41926,2.43048,2.15611,2.48643,0
1.30730,5.41034,2.44502,2.12677,2.48199,0
1.31465,5.40148,2.45952,2.09703,2.47742,0
1.32211,5.39271,2.47400,2.06685,2.47271,0
1.32967,5.38401,2.48844,2.03623,2.46785,0
1.33735,5.37539,2.50284,2.00514,2.46284,0
1.34515,5.36685,2.51721,1.97356,2.45766,0
1.35307,5.35840,2.53155,1.94147,2.45232,0
1.36112,5.35002,2.54584,1.90884,2.44679,0
1.36932,5.34173,2.56010,1.87564,2.44108,0
1.37765,5.33352,2.57432,1.84184,2.43517,0
1.38614,5.32539,2.58849,1.80741,2.42905,0
1.39479,5.31735,2.60263,1.77231,2.42272,0
1.40362,5.30939,2.61672,1.73650,2.41615,0
1.41262,5.30153,2.63077,1.69994,2.40933,0
1.42182,5.29375,2.64477,1.66258,2.40225,0
1.43122,5.28605,2.65873,1.62435,2.39488,0
1.44085,5.27845,2.67264,1.58520,2.38722,0
1.45071,5.27094,2.68650,1.54507,2.37923,0
1.46083,5.26352,2.70031,1.50386,2.37089,0
1.47123,5.25619,2.71407,1.46149,2.36218,0
1.48193,5.24895,2.72778,1.41785,2.35306,0
1.49296,5.24180,2.74143,1.37283,2.34348,0
1.50435,5.23475,2.75504,1.32628,2.33342,0
1.51614,5.22780,2.76858,1.27803,2.32281,0
1.52837,5.22094,2.78208,1.22789,2.31160,0
1.54111,5.21418,2.79551,1.17562,2.29970,0
1.55441,5.20751,2.80889,1.12091,2.28704,0
1.56836,5.20095,2.82221,1.06339,2.27349,0
1.58306,5.19448,2.83547,1.00257,2.25891,0
1.59866,5.18812,2.84866,0.93782,2.24312,0
1.61533,5.18185,2.86180,0.86825,2.22587,0
1.63334,5.17569,2.87487,0.79260,2.20679,0
1.65307,5.16963,2.88787,0.70892,2.18538,0
1.67513,5.16367,2.90082,0.61395,2.16079,0
1.70059,5.15782,2.91369,0.50129,2.13156,0
1.73179,5.15207,2.92650,0.35446,2.09452,0
1.82001,5.13547,2.96450,0.00000,2.09440,36996
1.82011,5.13547,2.96450,0.35446,2.09440,0
1.86420,5.14663,2.94487,0.50129,2.09586,0
1.89537,5.15756,2.92537,0.61395,2.09866,0
1.92082,5.16825,2.90600,0.70892,2.10203,0
1.94287,5.17871,2.88676,0.79260,2.10574,0
1.96258,5.18894,2.86764,0.86825,2.10967,0
1.98058,5.19893,2.84865,0.93782,2.11377,0
1.99724,5.20870,2.82979,1.00257,2.11800,0
2.01283,5.21823,2.81106,1.06339,2.12233,0
2.02753,5.22754,2.79245,1.12091,2.12675,0
2.04147,5.23662,2.77396,1.17562,2.13124,0
2.05476,5.24547,2.75561,1.22789,2.13580,0
2.06749,5.25410,2.73737,1.27803,2.14041,0
2.07971,5.26250,2.71926,1.32628,2.14507,0
2.09150,5.27068,2.70128,1.37283,2.14977,0
2.10288,5.27863,2.68342,1.41785,2.15452,0
2.11390,5.28636,2.66568,1.46149,2.15929,0
2.12459,5.29388,2.64806,1.50386,2.16410,0
2.13498,5.30117,2.63057,1.54507,2.16894,0
2.14510,5.30824,2.61320,1.58520,2.17380,0
2.15496,5.31509,2.59594,1.62435,2.17869,0
2.16458,5.32173,2.57881,1.66258,2.18360,0
2.17397,5.32815,2.56180,1.69994,2.18853,0
2.18317,5.33436,2.54491,1.73650,2.19349,0
2.19217,5.34035,2.52815,1.77231,2.19846,0
2.20098,5.34613,2.51149,1.80741,2.20345,0
2.20963,5.35169,2.49496,1.84184,2.20846,0
2.21811,5.35705,2.47855,1.87564,2.21348,0
2.22645,5.36219,2.46225,1.90884,2.21851,0
2.23463,5.36712,2.44608,1.94147,2.22356,0
2.24268,5.37185,2.43001,1.97356,2.22863,0
2.25060,5.37636,2.41407,2.00514,2.23370,0
2.25839,5.38067,2.39824,2.03623,2.23879,0
2.26607,5.38478,2.38253,2.06685,2.24389,0
2.27363,5.38868,2.36693,2.09703,2.24900,0
2.28108,5.39237,2.35145,2.12677,2.25412,0
2.28843,5.39586,2.33609,2.15611,2.25926,0
2.29567,5.39915,2.32083,2.18505,2.26440,0
2.30283,5.40224,2.30569,2.21362,2.26955,0
2.30989,5.40513,2.29067,2.24182,2.27471,0
2.31686,5.40782,2.27575,2.26967,2.27987,0
2.32374,5.41031,2.26095,2.29718,2.28505,0
2.33054,5.41260,2.24627,2.32436,2.29024,0
2.33727,5.41469,2.23169,2.35124,2.29543,0
2.34391,5.41659,2.21722,2.37780,2.30063,0
2.35049,5.41830,2.20287,2.40408,2.30583,0
2.35699,5.41981,2.18862,2.43007,2.31105,0
2.36342,5.42113,2.17449,2.45579,2.31627,0
2.36978,5.42226,2.16046,2.48124,2.32149,0
2.37608,5.42320,2.14655,2.50643,2.32673,0
2.38231,5.42394,2.13274,2.53137,2.33197,0
2.38848,5.42450,2.11904,2.55606,2.33721,0
2.39460,5.42487,2.10545,2.58052,2.34246,0
2.40065,5.42505,2.09197,2.60475,2.34772,0
2.40665,5.42505,2.07859,2.62876,2.35298,0
2.41260,5.42486,2.06532,2.65255,2.35825,0
2.41849,5.42449,2.05215,2.67613,2.36352,0
2.42433,5.42393,2.03909,2.69950,2.36880,0
2.43012,5.42319,2.02614,2.72268,2.37408,0
2.43586,5.42227,2.01329,2.74565,2.37936,0
2.44155,5.42117,2.00055,2.76844,2.38466,0
2.44719,5.41989,1.98791,2.79104,2.38995,0
2.45279,5.41843,1.97537,2.81346,2.39525,0
2.45835,5.41680,1.96294,2.83570,2.40056,0
2.46386,5.41499,1.95061,2.85777,2.40587,0
2.46932,5.41300,1.93838,2.87967,2.41118,0
2.47475,5.41083,1.92625,2.90140,2.41650,0
2.48014,5.40850,1.91423,2.92297,2.42182,0
2.48548,5.40599,1.90230,2.94438,2.42714,0
2.49079,5.40330,1.89048,2.96564,2.43247,0
2.49606,5.40045,1.87876,2.98675,2.43780,0
2.50129,5.39743,1.86713,3.00771,2.44314,0
2.50649,5.39423,1.85561,3.02853,2.44848,0
2.51165,5.39087,1.84418,3.04920,2.45382,0
2.51677,5.38734,1.83286,3.06973,2.45917,0
2.52186,5.38365,1.82163,3.09013,2.46452,0
2.52692,5.37979,1.81050,3.11039,2.46987,0
2.53194,5.37576,1.79946,3.13053,2.47523,0
2.53694,5.37158,1.78852,3.15053,2.48059,0
2.54190,5.36723,1.77768,3.17041,2.48595,0
2.54682,5.36271,1.76694,3.19016,2.49131,0
2.55172,5.35804,1.75629,3.20979,2.49668,0
2.55659,5.35321,1.74574,3.22930,2.50205,0
2.56143,5.34822,1.73528,3.24870,2.50743,0
2.56624,5.34307,1.72491,3.26798,2.51280,0
2.57102,5.33776,1.71464,3.28715,2.51818,0
2.57578,5.33230,1.70446,3.30620,2.52356,0
2.58050,5.32668,1.69438,3.32515,2.52895,0
2.58520,5.32091,1.68439,3.34399,2.53434,0
2.58988,5.31498,1.67448,3.36272,2.53973,0
2.59452,5.30891,1.66468,3.38135,2.54512,0
2.59914,5.30268,1.65496,3.39988,2.55051,0
2.60374,5.29630,1.64533,3.41831,2.55591,0
2.60831,5.28977,1.63580,3.43664,2.56131,0
2.61286,5.28310,1.62635,3.45487,2.56671,0
2.61738,5.27628,1.61700,3.47301,2.57212,0
2.62188,5.26930,1.60773,3.49105,2.57752,0
2.62636,5.26219,1.59855,3.50900,2.58293,0
2.63081,5.25493,1.58946,3.52685,2.58834,0
2.63524,5.24752,1.58046,3.54462,2.59376,0
2.63965,5.23998,1.57154,3.56230,2.59917,0
2.64404,5.23229,1.56272,3.57989,2.60459,0
2.64840,5.22446,1.55398,3.59740,2.61001,0
2.65275,5.21649,1.54532,3.61482,2.61543,0
2.65707,5.20838,1.53675,3.63216,2.62086,0
2.66137,5.20013,1.52827,3.64941,2.62628,0
2.66565,5.19175,1.51987,3.66659,2.63171,0
2.66991,5.18323,1.51156,3.68368,2.63714,0
2.67416,5.17458,1.50333,3.70069,2.64257,0
2.67838,5.16579,1.49518,3.71763,2.64800,0
2.68258,5.15686,1.48712,3.73449,2.65344,0
2.68677,5.14781,1.47914,3.75128,2.65888,0
2.69093,5.13862,1.47124,3.76799,2.66431,0
2.69508,5.12930,1.46343,3.78462,2.66976,0
2.69921,5.11986,1.45569,3.80118,2.67520,0
2.70332,5.11028,1.44804,3.81768,2.68064,0
2.70741,5.10058,1.44047,3.83410,2.68609,0
2.71149,5.09075,1.43297,3.85045,2.69154,0
2.71555,5.08079,1.42556,3.86673,2.69699,0
2.71959,5.07071,1.41823,3.88294,2.70244,0
2.72361,5.06051,1.41098,3.89908,2.70789,0
2.72762,5.05018,1.40380,3.91516,2.71334,0
2.73161,5.03973,1.39671,3.93118,2.71880,0
2.73559,5.02916,1.38969,3.94712,2.72426,0
2.73955,5.01847,1.38275,3.96301,2.72971,0
2.74349,5.00766,1.37588,3.97883,2.73518,0
2.74742,4.99673,1.36909,3.99459,2.74064,0
2.75133,4.98569,1.36238,4.01028,2.74610,0
2.75523,4.97453,1.35574,4.02592,2.75157,0
2.75911,4.96325,1.34918,4.04149,2.75703,0
2.76297,4.95186,1.34270,4.05701,2.76250,0
2.76683,4.94035,1.33628,4.07246,2.76797,0
2.77066,4.92874,1.32995,4.08786,2.77344,0
2.77449,4.91701,1.32368,4.10320,2.77891,0
2.77829,4.90517,1.31749,4.11848,2.78439,0
2.78209,4.89322,1.31137,4.13370,2.78986,0
2.78587,4.88116,1.30533,4.14887,2.79534,0
2.78964,4.86899,1.29935,4.16399,2.80081,0
2.79339,4.85672,1.29345,4.17905,2.80629,0
2.79713,4.84434,1.28762,4.19405,2.81177,0
2.80085,4.83185,1.28185,4.20901,2.81725,0
2.80457,4.81926,1.27616,4.22391,2.82274,0
2.80827,4.80657,1.27054,4.23875,2.82822,0
2.81195,4.79378,1.26499,4.25355,2.83371,0
2.81563,4.78088,1.25951,4.26829,2.83919,0
2.81929,4.76789,1.25409,4.28298,2.84468,0
2.82294,4.75479,1.24874,4.29763,2.85017,0
2.82657,4.74160,1.24346,4.31222,2.85566,0
2.83020,4.72831,1.23825,4.32676,2.86115,0
2.83381,4.71492,1.23311,4.34126,2.86664,0
2.83741,4.70144,1.22803,4.35571,2.87214,0
2.84100,4.68786,1.22301,4.37010,2.87763,0
2.84457,4.67419,1.21807,4.38446,2.88313,0
2.84813,4.66042,1.21318,4.39876,2.88862,0
2.85169,4.64657,1.20837,4.41302,2.89412,0
2.85523,4.63262,1.20361,4.42723,2.89962,0
2.85876,4.61858,1.19892,4.44140,2.90512,0
2.86228,4.60446,1.19430,4.45552,2.91062,0
2.86578,4.59024,1.18973,4.46960,2.91613,0
2.86928,4.57594,1.18523,4.48363,2.92163,0
2.87277,4.56155,1.18079,4.49762,2.92714,0
2.87624,4.54708,1.17641,4.51157,2.93264,0
2.87970,4.53252,1.17210,4.52547,2.93815,0
2.88316,4.51788,1.16784,4.53933,2.94366,0
2.88660,4.50316,1.16365,4.55315,2.94916,0
2.89003,4.48835,1.15951,4.56693,2.95467,0
2.89345,4.47347,1.15544,4.58066,2.96019,0
2.89686,4.45850,1.15142,4.59436,2.96570,0
2.90027,4.44346,1.14747,4.60801,2.97121,0
2.90366,4.42834,1.14357,4.62162,2.97672,0
2.90704,4.41314,1.13972,4.63520,2.98224,0
2.91041,4.39787,1.13594,4.64873,2.98775,0
2.91377,4.38252,1.13221,4.66222,2.99327,0
2.91712,4.36710,1.12854,4.67568,2.99879,0
2.92047,4.35160,1.12493,4.68910,3.00431,0
2.92380,4.33603,1.12137,4.70247,3.00983,0
2.92712,4.32040,1.11787,4.71581,3.01535,0
2.93043,4.30469,1.11442,4.72912,3.02087,0
2.93374,4.28891,1.11103,4.74238,3.02639,0
2.93703,4.27306,1.10769,4.75561,3.03191,0
2.94032,4.25715,1.10440,4.76880,3.03744,0
2.94360,4.24117,1.10117,4.76880,3.04296,0
2.94687,4.22512,1.09799,4.75561,3.04850,0
2.95016,4.20901,1.09486,4.74238,3.05407,0
2.95345,4.19284,1.09179,4.72912,3.05968,0
2.95676,4.17660,1.08877,4.71581,3.06532,0
2.96007,4.16031,1.08579,4.70247,3.07098,0
2.96340,4.14395,1.08287,4.68910,3.07669,0
2.96673,4.12753,1.08000,4.67568,3.08051,0
2.97007,4.11105,1.07718,4.66222,3.08052,0
2.97342,4.09452,1.07440,4.64873,3.08055,0
2.97678,4.07792,1.07168,4.63520,3.08060,0
2.98016,4.06128,1.06901,4.62162,3.08066,0
2.98354,4.04457,1.06638,4.60801,3.08075,0
2.98693,4.02782,1.06380,4.59436,3.08085,0
2.99033,4.01101,1.06127,4.58066,3.08097,0
2.99374,3.99414,1.05878,4.56693,3.08110,0
2.99716,3.97723,1.05635,4.55315,3.08125,0
3.00059,3.96026,1.05395,4.53933,3.08143,0
3.00404,3.94325,1.05161,4.52547,3.08162,0
3.00749,3.92619,1.04931,4.51157,3.08182,0
3.01095,3.90908,1.04705,4.49762,3.08205,0
3.01443,3.89192,1.04484,4.48363,3.08230,0
3.01791,3.87472,1.04267,4.46960,3.08256,0
3.02141,3.85747,1.04054,4.45552,3.08284,0
3.02492,3.84018,1.03846,4.44140,3.08315,0
3.02844,3.82285,1.03642,4.42723,3.08347,0
3.03197,3.80547,1.03442,4.41302,3.08381,0
3.03551,3.78806,1.03247,4.39876,3.08418,0
3.03906,3.77060,1.03056,4.38446,3.08456,0
3.04262,3.75311,1.02868,4.37010,3.08496,0
3.04620,3.73557,1.02685,4.35571,3.08539,0
3.04979,3.71800,1.02506,4.34126,3.08583,0
3.05339,3.70039,1.02331,4.32676,3.08629,0
3.05700,3.68275,1.02159,4.31222,3.08678,0
3.06062,3.66508,1.01992,4.29763,3.08729,0
3.06426,3.64737,1.01828,4.28298,3.08782,0
3.06791,3.62962,1.01668,4.26829,3.08837,0
3.07157,3.61185,1.01512,4.25355,3.08894,0
3.07524,3.59405,1.01360,4.23875,3.08954,0
3.07893,3.57621,1.01211,4.22391,3.09015,0
3.08263,3.55835,1.01066,4.20901,3.09079,0
3.08634,3.54046,1.00925,4.19405,3.09146,0
3.09007,3.52254,1.00787,4.17905,3.09214,0
3.09381,3.50460,1.00653,4.16399,3.09285,0
3.09756,3.48663,1.00522,4.14887,3.09359,0
3.10132,3.46864,1.00394,4.13370,3.09434,0
3.10510,3.45062,1.00270,4.11848,3.09513,0
3.10890,3.43259,1.00149,4.10320,3.09593,0
3.11271,3.41453,1.00032,4.08786,3.09676,0
3.11653,3.39645,0.99917,4.07246,3.09762,0
3.12037,3.37835,0.99806,4.05701,3.09850,0
3.12422,3.36024,0.99698,4.04149,3.09941,0
3.12809,3.34210,0.99594,4.02592,3.10034,0
3.13197,3.32395,0.99492,4.01028,3.10130,0
3.13586,3.30579,0.99393,3.99459,3.10228,0
3.13978,3.28761,0.99298,3.97883,3.10330,0
3.14370,3.26942,0.99205,3.96301,3.10434,0
3.14765,3.25121,0.99115,3.94712,3.10540,0
3.15161,3.23299,0.99028,3.93118,3.10650,0
3.15558,3.21476,0.98944,3.91516,3.10762,0
