time,x_pos,y_pos,velocity,rotation,action
0.00010,7.58603,0.49350,0.00000,-3.14159,524288
0.00020,7.58603,0.49350,0.25094,-3.14159,0
0.06273,7.57743,0.49358,0.35489,3.14006,0
0.10695,7.56878,0.49383,0.43465,3.13712,0
0.14306,7.56008,0.49425,0.50189,3.13359,0
0.17433,7.55134,0.49484,0.56113,3.12970,0
0.20229,7.54254,0.49558,0.61468,3.12558,0
0.22782,7.53370,0.49649,0.66393,3.12128,0
0.25146,7.52481,0.49757,0.70977,3.11684,0
0.27357,7.51587,0.49880,0.75283,3.11229,0
0.29441,7.50688,0.50020,0.79355,3.10766,0
0.31419,7.49785,0.50176,0.83228,3.10294,0
0.33304,7.48877,0.50347,0.86929,3.09816,0
0.35109,7.47964,0.50534,0.90479,3.09333,0
0.36844,7.47046,0.50737,0.93894,3.08844,0
0.38515,7.46125,0.50956,0.97190,3.08350,0
0.40130,7.45198,0.51190,1.00377,3.07853,0
0.41693,7.44267,0.51439,1.03466,3.07352,0
0.43210,7.43332,0.51704,1.06466,3.06848,0
0.44684,7.42392,0.51984,1.09384,3.06340,0
0.46118,7.41448,0.52279,1.12225,3.05830,0
0.47517,7.40500,0.52589,1.14997,3.05317,0
0.48881,7.39547,0.52914,1.17703,3.04802,0
0.50215,7.38590,0.53254,1.20348,3.04284,0
0.51518,7.37629,0.53609,1.22937,3.03765,0
0.52795,7.36663,0.53978,1.25472,3.03243,0
0.54046,7.35694,0.54362,1.27956,3.02719,0
0.55272,7.34720,0.54760,1.30394,3.02194,0
0.56476,7.33743,0.55173,1.32787,3.01668,0
0.57657,7.32761,0.55600,1.35137,3.01139,0
0.58819,7.31775,0.56041,1.37447,3.00609,0
0.59960,7.30786,0.56496,1.39719,3.00078,0
0.61083,7.29792,0.56965,1.41955,2.99546,0
0.62189,7.28795,0.57448,1.44156,2.99012,0
0.63277,7.27794,0.57945,1.46324,2.98477,0
0.64350,7.26789,0.58456,1.48460,2.97940,0
0.65407,7.25780,0.58980,1.50566,2.97403,0
0.66449,7.24768,0.59517,1.52643,2.96865,0
0.67477,7.23752,0.60069,1.54692,2.96325,0
0.68492,7.22732,0.60633,1.56714,2.95785,0
0.69493,7.21708,0.61211,1.58710,2.95244,0
0.70482,7.20682,0.61801,1.60682,2.94702,0
0.71458,7.19651,0.62405,1.62630,2.94159,0
0.72423,7.18617,0.63022,1.64554,2.93615,0
0.73377,7.17580,0.63651,1.66457,2.93070,0
0.74320,7.16539,0.64294,1.68338,2.92525,0
0.75252,7.15495,0.64949,1.70198,2.91978,0
0.76174,7.14448,0.65616,1.72038,2.91432,0
0.77086,7.13397,0.66296,1.73859,2.90884,0
0.77989,7.12343,0.66988,1.75660,2.90336,0
0.78882,7.11286,0.67693,1.77444,2.89787,0
0.79767,7.10225,0.68410,1.79209,2.89237,0
0.80642,7.09162,0.69139,1.80958,2.88687,0
0.81509,7.08095,0.69880,1.82689,2.88136,0
0.82368,7.07026,0.70632,1.84405,2.87584,0
0.83219,7.05953,0.71397,1.86104,2.87032,0
0.84063,7.04877,0.72173,1.87789,2.86480,0
0.84898,7.03799,0.72961,1.89458,2.85927,0
0.85726,7.02717,0.73761,1.91113,2.85373,0
0.86548,7.01633,0.74571,1.92753,2.84819,0
0.87362,7.00545,0.75394,1.94380,2.84264,0
0.88169,6.99455,0.76227,1.95993,2.83709,0
0.88970,6.98363,0.77072,1.97593,2.83153,0
0.89764,6.97267,0.77927,1.99180,2.82597,0
0.90552,6.96169,0.78794,2.00755,2.82041,0
0.91333,6.95068,0.79671,2.02317,2.81484,0
0.92109,6.93965,0.80559,2.03867,2.80926,0
0.92879,6.92859,0.81458,2.05406,2.80369,0
0.93643,6.91751,0.82367,2.06933,2.79810,0
0.94401,6.90640,0.83287,2.08449,2.79252,0
0.95154,6.89526,0.84217,2.09954,2.78693,0
0.95901,6.88410,0.85158,2.11448,2.78133,0
0.96644,6.87292,0.86109,2.12932,2.77573,0
0.97381,6.86172,0.87069,2.14406,2.77013,0
0.98113,6.85049,0.88040,2.15869,2.76453,0
0.98839,6.83924,0.89021,2.17323,2.75892,0
0.99562,6.82797,0.90011,2.18767,2.75331,0
1.00279,6.81667,0.91012,2.20202,2.74769,0
1.00992,6.80536,0.92021,2.21627,2.74207,0
1.01700,6.79402,0.93041,2.23043,2.73645,0
1.02403,6.78266,0.94069,2.24450,2.73082,0
1.03102,6.77129,0.95108,2.25849,2.72519,0
1.03797,6.75989,0.96155,2.27239,2.71956,0
1.04488,6.74847,0.97211,2.28620,2.71393,0
1.05174,6.73704,0.98277,2.29993,2.70829,0
1.05856,6.72558,0.99352,2.31358,2.70265,0
1.06535,6.71411,1.00435,2.32715,2.69700,0
1.07209,6.70262,1.01527,2.34064,2.69136,0
1.07880,6.69111,1.02628,2.35406,2.68571,0
1.08546,6.67958,1.03737,2.36739,2.68006,0
1.09209,6.66804,1.04855,2.38066,2.67440,0
1.09868,6.65648,1.05981,2.39385,2.66874,0
1.10524,6.64491,1.07116,2.40696,2.66308,0
1.11176,6.63332,1.08259,2.42001,2.65742,0
1.11824,6.62171,1.09409,2.43298,2.65176,0
1.12469,6.61009,1.10568,2.44589,2.64609,0
1.13111,6.59846,1.11735,2.45873,2.64042,0
1.13749,6.58681,1.12910,2.47150,2.63475,0
1.14384,6.57515,1.14092,2.48421,2.62907,0
1.15016,6.56347,1.15282,2.49685,2.62340,0
1.15644,6.55178,1.16479,2.50943,2.61799,0
1.16269,6.54008,1.17684,2.52195,2.61798,0
1.16892,6.52837,1.18896,2.53440,2.61793,0
1.17511,6.51664,1.20116,2.54679,2.61785,0
1.18127,6.50491,1.21342,2.55913,2.61775,0
1.18740,6.49316,1.22576,2.55913,2.61761,0
1.19353,6.48140,1.23817,2.54679,2.61745,0
1.19970,6.46963,1.25064,2.53440,2.61725,0
1.20589,6.45785,1.26319,2.52195,2.61702,0
1.21211,6.44607,1.27580,2.50943,2.61677,0
1.21836,6.43427,1.28847,2.49685,2.61648,0
1.22465,6.42246,1.30121,2.48421,2.61615,0
1.23097,6.41065,1.31402,2.47150,2.61580,0
1.23732,6.39883,1.32688,2.45873,2.61541,0
1.24370,6.38700,1.33981,2.44589,2.61499,0
1.25011,6.37516,1.35280,2.43298,2.61453,0
1.25656,6.36332,1.36585,2.42001,2.61404,0
1.26305,6.35147,1.37896,2.40696,2.61352,0
1.26957,6.33961,1.39213,2.39385,2.61295,0
1.27612,6.32775,1.40536,2.38066,2.61235,0
1.28272,6.31589,1.41864,2.36739,2.61172,0
1.28934,6.30401,1.43198,2.35406,2.61104,0
1.29601,6.29214,1.44537,2.34064,2.61033,0
1.30271,6.28026,1.45881,2.32715,2.60958,0
1.30946,6.26837,1.47231,2.31358,2.60878,0
1.31624,6.25649,1.48586,2.29993,2.60795,0
1.32306,6.24460,1.49946,2.28620,2.60708,0
1.32993,6.23271,1.51311,2.27239,2.60616,0
1.33683,6.22081,1.52681,2.25849,2.60520,0
1.34378,6.20891,1.54055,2.24450,2.60420,0
1.35077,6.19702,1.55435,2.23043,2.60315,0
1.35781,6.18512,1.56819,2.21627,2.60206,0
1.36489,6.17322,1.58207,2.20202,2.60092,0
1.37202,6.16132,1.59600,2.18767,2.59973,0
1.37919,6.14942,1.60997,2.17323,2.59850,0
1.38641,6.13752,1.62398,2.15869,2.59722,0
1.39368,6.12562,1.63804,2.14406,2.59589,0
1.40100,6.11372,1.65213,2.12932,2.59450,0
1.40837,6.10183,1.66627,2.11448,2.59307,0
1.41579,6.08994,1.68044,2.09954,2.59158,0
1.42326,6.07804,1.69465,2.08449,2.59004,0
1.43079,6.06616,1.70889,2.06933,2.58844,0
1.43838,6.05427,1.72317,2.05406,2.58678,0
1.44602,6.04239,1.73749,2.03867,2.58507,0
1.45371,6.03051,1.75184,2.02317,2.58330,0
1.46147,6.01864,1.76622,2.00755,2.58147,0
1.46929,6.00677,1.78064,1.99180,2.57957,0
1.47717,5.99491,1.79508,1.97593,2.57762,0
1.48511,5.98305,1.80956,1.95993,2.57559,0
1.49311,5.97120,1.82406,1.94380,2.57350,0
1.50119,5.95936,1.83859,1.92753,2.57135,0
1.50933,5.94752,1.85315,1.91113,2.56912,0
1.51754,5.93569,1.86773,1.89458,2.56682,0
1.52582,5.92386,1.88234,1.87789,2.56445,0
1.53418,5.91204,1.89697,1.86104,2.56200,0
1.54261,5.90024,1.91163,1.84405,2.55947,0
1.55112,5.88844,1.92631,1.82689,2.55687,0
1.55971,5.87665,1.94101,1.80958,2.55418,0
1.56838,5.86486,1.95573,1.79209,2.55141,0
1.57714,5.85309,1.97047,1.77444,2.54855,0
1.58598,5.84133,1.98523,1.75660,2.54560,0
1.59492,5.82958,2.00000,1.73859,2.54256,0
1.60394,5.81784,2.01479,1.72038,2.53943,0
1.61306,5.80611,2.02960,1.70198,2.53619,0
1.62228,5.79439,2.04442,1.68338,2.53286,0
1.63161,5.78269,2.05926,1.66457,2.52942,0
1.64103,5.77100,2.07411,1.64554,2.52587,0
1.65057,5.75932,2.08897,1.62630,2.52221,0
1.66022,5.74765,2.10384,1.60682,2.51844,0
1.66999,5.73600,2.11872,1.58710,2.51454,0
1.67987,5.72436,2.13361,1.56714,2.51052,0
1.68989,5.71273,2.14851,1.54692,2.50638,0
1.70003,5.70112,2.16341,1.52643,2.50209,0
1.71031,5.68953,2.17832,1.50566,2.49767,0
1.72074,5.67795,2.19324,1.48460,2.49310,0
1.73131,5.66639,2.20816,1.46324,2.48838,0
1.74203,5.65484,2.22308,1.44156,2.48350,0
1.75292,5.64331,2.23801,1.41955,2.47846,0
1.76397,5.63179,2.25293,1.39719,2.47324,0
1.77520,5.62030,2.26786,1.37447,2.46784,0
1.78662,5.60882,2.28279,1.35137,2.46225,0
1.79823,5.59736,2.29771,1.32787,2.45646,0
1.81005,5.58592,2.31264,1.30394,2.45046,0
1.82208,5.57450,2.32755,1.27956,2.44424,0
1.83435,5.56309,2.34247,1.25472,2.43778,0
1.84686,5.55171,2.35738,1.22937,2.43107,0
1.85962,5.54034,2.37228,1.20348,2.42410,0
1.87266,5.52900,2.38718,1.17703,2.41684,0
1.88599,5.51768,2.40207,1.14997,2.40929,0
1.89964,5.50638,2.41695,1.12225,2.40141,0
1.91362,5.49510,2.43181,1.09384,2.39319,0
1.92797,5.48384,2.44667,1.06466,2.38459,0
1.94271,5.47261,2.46152,1.03466,2.37559,0
1.95787,5.46139,2.47635,1.00377,2.36615,0
1.97351,5.45021,2.49117,0.97190,2.35624,0
1.98965,5.43904,2.50598,0.93894,2.34579,0
2.00637,5.42790,2.52076,0.90479,2.33477,0
2.02371,5.41678,2.53554,0.86929,2.32310,0
2.04176,5.40569,2.55029,0.83228,2.31070,0
2.06062,5.39462,2.56503,0.79355,2.29747,0
2.08039,5.38358,2.57974,0.75283,2.28330,0
2.10124,5.37256,2.59444,0.70977,2.26804,0
2.12335,5.36158,2.60911,0.66393,2.25147,0
2.14698,5.35061,2.62376,0.61468,2.23334,0
2.17251,5.33968,2.63839,0.56113,2.21326,0
2.20048,5.32877,2.65300,0.50189,2.19068,0
2.23175,5.31789,2.66758,0.43465,2.16471,0
2.26785,5.30703,2.68213,0.35489,2.13377,0
2.31207,5.29621,2.69665,0.25094,2.09449,0
2.43714,5.26391,2.74006,0.00000,2.09440,528516
2.43724,5.26391,2.74006,0.25094,2.09440,0
2.49957,5.24898,2.73137,0.35489,2.09635,0
2.54365,5.23404,2.72268,0.43465,2.10008,0
2.57964,5.21909,2.71399,0.50189,2.10458,0
2.61080,5.20414,2.70530,0.56113,2.10952,0
2.63868,5.18919,2.69661,0.61468,2.11477,0
2.66412,5.17423,2.68791,0.66393,2.12023,0
2.68768,5.15926,2.67922,0.70977,2.12588,0
2.70972,5.14429,2.67053,0.75283,2.13166,0
2.73050,5.12932,2.66183,0.79355,2.13756,0
2.75021,5.11435,2.65314,0.83228,2.14355,0
2.76901,5.09937,2.64445,0.86929,2.14963,0
2.78700,5.08438,2.63576,0.90479,2.15578,0
2.80429,5.06940,2.62706,0.93894,2.16200,0
2.82095,5.05440,2.61837,0.97190,2.16827,0
2.83704,5.03941,2.60968,1.00377,2.17460,0
2.85262,5.02441,2.60099,1.03466,2.18097,0
2.86774,5.00941,2.59230,1.06466,2.18739,0
2.88243,4.99441,2.58361,1.09384,2.19384,0
2.89673,4.97941,2.57492,1.12225,2.20033,0
2.91067,4.96440,2.56623,1.14997,2.20685,0
2.92427,4.94939,2.55754,1.17703,2.21341,0
2.93756,4.93438,2.54885,1.20348,2.21999,0
2.95056,4.91936,2.54017,1.22937,2.22660,0
2.96328,4.90435,2.53149,1.25472,2.23323,0
2.97575,4.88933,2.52280,1.27956,2.23989,0
2.98797,4.87431,2.51412,1.30394,2.24657,0
2.99997,4.85929,2.50545,1.32787,2.25327,0
3.01175,4.84427,2.49677,1.35137,2.25999,0
3.02333,4.82925,2.48809,1.37447,2.26673,0
3.03471,4.81423,2.47942,1.39719,2.27348,0
3.04590,4.79920,2.47075,1.41955,2.28026,0
3.05692,4.78418,2.46208,1.44156,2.28705,0
3.06777,4.76915,2.45341,1.46324,2.29385,0
3.07846,4.75413,2.44475,1.48460,2.30067,0
3.08900,4.73910,2.43609,1.50566,2.30750,0
3.09939,4.72408,2.42743,1.52643,2.31435,0
3.10963,4.70905,2.41877,1.54692,2.32121,0
3.11975,4.69403,2.41012,1.56714,2.32808,0
3.12973,4.67901,2.40146,1.58710,2.33496,0
3.13958,4.66398,2.39282,1.60682,2.34186,0
3.14932,4.64896,2.38417,1.62630,2.34877,0
3.15894,4.63394,2.37553,1.64554,2.35568,0
3.16844,4.61892,2.36689,1.66457,2.36261,0
3.17784,4.60390,2.35825,1.68338,2.36955,0
3.18713,4.58888,2.34962,1.70198,2.37650,0
3.19632,4.57387,2.34099,1.72038,2.38345,0
3.20541,4.55885,2.33237,1.73859,2.39042,0
3.21441,4.54384,2.32375,1.75660,2.39739,0
3.22331,4.52883,2.31513,1.77444,2.40437,0
3.23213,4.51382,2.30652,1.79209,2.41136,0
3.24086,4.49882,2.29791,1.80958,2.41836,0
3.24950,4.48382,2.28931,1.82689,2.42537,0
3.25806,4.46882,2.28070,1.84405,2.43238,0
3.26655,4.45382,2.27211,1.86104,2.43940,0
3.27495,4.43883,2.26352,1.87789,2.44643,0
3.28328,4.42383,2.25493,1.89458,2.45346,0
3.29154,4.40885,2.24635,1.91113,2.46051,0
3.29972,4.39386,2.23777,1.92753,2.46755,0
3.30784,4.37888,2.22920,1.94380,2.47461,0
3.31588,4.36391,2.22063,1.95993,2.48167,0
3.32386,4.34893,2.21207,1.97593,2.48873,0
3.33178,4.33397,2.20351,1.99180,2.49581,0
3.33963,4.31900,2.19496,2.00755,2.50288,0
3.34742,4.30404,2.18641,2.02317,2.50997,0
3.35516,4.28909,2.17787,2.03867,2.51706,0
3.36283,4.27414,2.16933,2.05406,2.52415,0
3.37044,4.25919,2.16080,2.06933,2.53125,0
3.37800,4.24425,2.15228,2.08449,2.53836,0
3.38551,4.22931,2.14376,2.09954,2.54547,0
3.39296,4.21438,2.13525,2.11448,2.55258,0
3.40035,4.19946,2.12674,2.12932,2.55970,0
3.40770,4.18454,2.11824,2.14406,2.56683,0
3.41500,4.16963,2.10975,2.15869,2.57396,0
3.42224,4.15472,2.10126,2.17323,2.58109,0
3.42944,4.13982,2.09278,2.18767,2.58823,0
3.43659,4.12492,2.08431,2.20202,2.59537,0
3.44369,4.11004,2.07584,2.21627,2.60252,0
3.45075,4.09515,2.06738,2.23043,2.60967,0
3.45776,4.08028,2.05893,2.24450,2.61682,0
3.46473,4.06541,2.05048,2.25849,2.62398,0
3.47166,4.05055,2.04204,2.27239,2.63114,0
3.47854,4.03570,2.03361,2.28620,2.63831,0
3.48538,4.02085,2.02518,2.29993,2.64548,0
3.49219,4.00601,2.01677,2.31358,2.65265,0
3.49895,3.99118,2.00836,2.32715,2.65983,0
3.50567,3.97636,1.99995,2.34064,2.66701,0
3.51235,3.96154,1.99156,2.35406,2.67420,0
3.51900,3.94673,1.98317,2.36739,2.68139,0
3.52560,3.93194,1.97479,2.38066,2.68858,0
3.53217,3.91714,1.96642,2.39385,2.69577,0
3.53871,3.90236,1.95806,2.40696,2.70297,0
3.54521,3.88759,1.94970,2.42001,2.71017,0
3.55167,3.87283,1.94136,2.43298,2.71738,0
3.55810,3.85807,1.93302,2.44589,2.72459,0
3.56449,3.84332,1.92469,2.45873,2.73180,0
3.57086,3.82859,1.91637,2.47150,2.73901,0
3.57719,3.81386,1.90806,2.48421,2.74623,0
3.58348,3.79914,1.89975,2.49685,2.75345,0
3.58975,3.78444,1.89146,2.50943,2.76067,0
3.59598,3.76974,1.88317,2.52195,2.76790,0
3.60218,3.75505,1.87490,2.53440,2.77513,0
3.60835,3.74037,1.86663,2.54679,2.78236,0
3.61450,3.72571,1.85837,2.55913,2.78959,0
3.62061,3.71105,1.85012,2.57140,2.79683,0
3.62669,3.69641,1.84189,2.58362,2.80407,0
3.63275,3.68177,1.83366,2.59578,2.81131,0
3.63877,3.66715,1.82544,2.60788,2.81856,0
3.64477,3.65254,1.81723,2.61992,2.82580,0
3.65074,3.63794,1.80903,2.63191,2.83305,0
3.65668,3.62335,1.80084,2.64385,2.84031,0
3.66260,3.60877,1.79266,2.65573,2.84756,0
3.66849,3.59421,1.78449,2.66756,2.85482,0
3.67435,3.57965,1.77633,2.67934,2.86208,0
3.68019,3.56511,1.76818,2.69107,2.86934,0
3.68600,3.55058,1.76005,2.70274,2.87660,0
3.69179,3.53607,1.75192,2.71437,2.88387,0
3.69755,3.52156,1.74380,2.72594,2.89114,0
3.70329,3.50707,1.73570,2.73747,2.89841,0
3.70901,3.49260,1.72760,2.74894,2.90568,0
3.71470,3.47813,1.71952,2.76037,2.91296,0
3.72036,3.46368,1.71145,2.77176,2.92024,0
3.72601,3.44924,1.70339,2.78309,2.92752,0
3.73163,3.43482,1.69534,2.79438,2.93480,0
3.73722,3.42041,1.68730,2.80563,2.94208,0
3.74280,3.40601,1.67927,2.81683,2.94937,0
3.74835,3.39163,1.67126,2.82799,2.95666,0
3.75388,3.37726,1.66325,2.83910,2.96395,0
3.75939,3.36291,1.65526,2.85017,2.97124,0
3.76488,3.34857,1.64728,2.86119,2.97853,0
3.77035,3.33424,1.63932,2.87218,2.98583,0
3.77579,3.31993,1.63136,2.88312,2.99313,0
3.78122,3.30564,1.62342,2.89402,3.00042,0
3.78662,3.29136,1.61549,2.90488,3.00773,0
3.79201,3.27709,1.60757,2.91570,3.01503,0
3.79737,3.26284,1.59966,2.92647,3.02233,0
3.80272,3.24861,1.59177,2.93721,3.02964,0
3.80804,3.23439,1.58389,2.93721,3.03695,0
3.81337,3.22019,1.57602,2.92647,3.04429,0
3.81872,3.20600,1.56817,2.91570,3.05168,0
3.82408,3.19183,1.56033,2.90488,3.05913,0
3.82946,3.17768,1.55250,2.89402,3.06663,0
3.83487,3.16354,1.54468,2.88312,3.07420,0
3.84030,3.14942,1.53688,2.87218,3.08051,0
3.84574,3.13532,1.52909,2.86119,3.08053,0
3.85121,3.12123,1.52132,2.85017,3.08058,0
3.85670,3.10716,1.51356,2.83910,3.08066,0
3.86221,3.09311,1.50581,2.82799,3.08077,0
3.86774,3.07908,1.49808,2.81683,3.08091,0
3.87329,3.06506,1.49036,2.80563,3.08108,0
3.87887,3.05106,1.48266,2.79438,3.08129,0
3.88446,3.03708,1.47497,2.78309,3.08153,0
3.89008,3.02311,1.46729,2.77176,3.08180,0
3.89573,3.00917,1.45963,2.76037,3.08210,0
3.90139,2.99524,1.45198,2.74894,3.08244,0
3.90708,2.98134,1.44435,2.73747,3.08281,0
3.91280,2.96745,1.43673,2.72594,3.08321,0
3.91854,2.95358,1.42912,2.71437,3.08365,0
3.92430,2.93972,1.42154,2.70274,3.08412,0
3.93009,2.92589,1.41396,2.69107,3.08463,0
3.93590,2.91208,1.40640,2.67934,3.08518,0
3.94174,2.89829,1.39886,2.66756,3.08576,0
3.94760,2.88451,1.39133,2.65573,3.08638,0
3.95349,2.87076,1.38382,2.64385,3.08704,0
3.95941,2.85702,1.37632,2.63191,3.08773,0
3.96535,2.84331,1.36884,2.61992,3.08847,0
3.97132,2.82962,1.36138,2.60788,3.08924,0
3.97732,2.81594,1.35393,2.59578,3.09005,0
3.98334,2.80229,1.34649,2.58362,3.09090,0
3.98940,2.78866,1.33907,2.57140,3.09180,0
3.99548,2.77505,1.33167,2.55913,3.09273,0
4.00159,2.76146,1.32429,2.54679,3.09371,0
4.00774,2.74789,1.31692,2.53440,3.09472,0
4.01391,2.73434,1.30956,2.52195,3.09579,0
4.02011,2.72081,1.30223,2.50943,3.09689,0
4.02634,2.70731,1.29491,2.49685,3.09804,0
4.03261,2.69383,1.28760,2.48421,3.09923,0
4.03890,2.68037,1.28032,2.47150,3.10048,0
4.04523,2.66693,1.27305,2.45873,3.10176,0
4.05160,2.65351,1.26579,2.44589,3.10310,0
4.05799,2.64012,1.25856,2.43298,3.10448,0
4.06442,2.62675,1.25134,2.42001,3.10591,0
4.07088,2.61340,1.24414,2.40696,3.10739,0
4.07738,2.60007,1.23696,2.39385,3.10892,0
4.08392,2.58677,1.22979,2.38066,3.11050,0
4.09049,2.57349,1.22264,2.36739,3.11213,0
4.09709,2.56023,1.21551,2.35406,3.11382,0
4.10374,2.54700,1.20840,2.34064,3.11556,0
4.11042,2.53379,1.20130,2.32715,3.11735,0
4.11714,2.52061,1.19423,2.31358,3.11920,0
4.12390,2.50745,1.18717,2.29993,3.12111,0
4.13070,2.49431,1.18013,2.28620,3.12308,0
4.13755,2.48120,1.17311,2.27239,3.12510,0
4.14443,2.46811,1.16610,2.25849,3.12718,0
4.15136,2.45504,1.15912,2.24450,3.12932,0
4.15833,2.44201,1.15215,2.23043,3.13153,0
4.16534,2.42899,1.14520,2.21627,3.13380,0
4.17240,2.41600,1.13827,2.20202,3.13613,0
4.17950,2.40304,1.13136,2.18767,3.13853,0
4.18665,2.39010,1.12447,2.17323,3.14099,0
4.19385,2.37719,1.11760,2.15869,-3.13966,0
4.20109,2.36430,1.11075,2.14406,-3.13706,0
4.20839,2.35144,1.10392,2.12932,-3.13438,0
4.21573,2.33860,1.09710,2.11448,-3.13164,0
4.22313,2.32580,1.09031,2.09954,-3.12882,0
4.23058,2.31301,1.08353,2.08449,-3.12592,0
4.23809,2.30026,1.07678,2.06933,-3.12295,0
4.24564,2.28753,1.07004,2.05406,-3.11989,0
4.25326,2.27482,1.06333,2.03867,-3.11676,0
4.26093,2.26215,1.05663,2.02317,-3.11355,0
4.26866,2.24950,1.04996,2.00755,-3.11025,0
4.27646,2.23688,1.04330,1.99180,-3.10686,0
4.28431,2.22428,1.03667,1.97593,-3.10339,0
4.29223,2.21172,1.03005,1.95993,-3.09982,0
4.30021,2.19918,1.02346,1.94380,-3.09617,0
4.30825,2.18667,1.01689,1.92753,-3.09241,0
4.31637,2.17418,1.01034,1.91113,-3.08857,0
4.32455,2.16173,1.00381,1.89458,-3.08462,0
4.33281,2.14930,0.99730,1.87789,-3.08056,0
4.34114,2.13690,0.99081,1.86104,-3.07641,0
4.34954,2.12453,0.98434,1.84405,-3.07214,0
4.35803,2.11219,0.97789,1.82689,-3.06776,0
4.36659,2.09988,0.97147,1.80958,-3.06327,0
4.37523,2.08760,0.96506,1.79209,-3.05866,0
4.38396,2.07534,0.95868,1.77444,-3.05393,0
4.39278,2.06312,0.95232,1.75660,-3.04908,0
4.40168,2.05093,0.94598,1.73859,-3.04410,0
4.41068,2.03876,0.93966,1.72038,-3.03898,0
4.41977,2.02663,0.93337,1.70198,-3.03373,0
4.42896,2.01452,0.92710,1.68338,-3.02834,0
4.43825,2.00245,0.92085,1.66457,-3.02280,0
4.44765,1.99040,0.91462,1.64554,-3.01711,0
4.45716,1.97839,0.90841,1.62630,-3.01126,0
4.46677,1.96640,0.90223,1.60682,-3.00526,0
4.47651,1.95445,0.89607,1.58710,-2.99908,0
4.48636,1.94253,0.88993,1.56714,-2.99274,0
4.49635,1.93064,0.88381,1.54692,-2.98621,0
4.50646,1.91878,0.87772,1.52643,-2.97949,0
4.51670,1.90695,0.87165,1.50566,-2.97258,0
4.52709,1.89516,0.86560,1.48460,-2.96547,0
4.53763,1.88339,0.85958,1.46324,-2.95815,0
4.54832,1.87166,0.85358,1.44156,-2.95060,0
4.55917,1.85996,0.84760,1.41955,-2.94283,0
4.57019,1.84829,0.84165,1.39719,-2.93481,0
4.58138,1.83666,0.83572,1.37447,-2.92654,0
4.59276,1.82505,0.82981,1.35137,-2.91801,0
4.60434,1.81348,0.82393,1.32787,-2.90919,0
4.61612,1.80194,0.81807,1.30394,-2.90008,0
4.62812,1.79044,0.81224,1.27956,-2.89067,0
4.64034,1.77897,0.80643,1.25472,-2.88092,0
4.65281,1.76753,0.80064,1.22937,-2.87083,0
4.66553,1.75613,0.79488,1.20348,-2.86036,0
4.67853,1.74475,0.78914,1.17703,-2.84951,0
4.69182,1.73342,0.78343,1.14997,-2.83823,0
4.70542,1.72211,0.77774,1.12225,-2.82651,0
4.71936,1.71084,0.77208,1.09384,-2.81430,0
4.73366,1.69961,0.76644,1.06466,-2.80158,0
4.74835,1.68841,0.76083,1.03466,-2.78829,0
4.76347,1.67724,0.75524,1.00377,-2.77439,0
4.77905,1.66611,0.74967,0.97190,-2.75983,0
4.79515,1.65501,0.74414,0.93894,-2.74453,0
4.81180,1.64395,0.73862,0.90479,-2.72842,0
4.82909,1.63292,0.73313,0.86929,-2.71140,0
