time,x_pos,y_pos,velocity,rotation,action
0.00010,7.58603,0.49350,0.00000,-3.14159,16
0.00020,7.58603,0.49350,0.35461,-3.14159,0
0.04435,7.57771,0.49360,0.50150,3.14012,0
0.07557,7.56930,0.49390,0.61421,3.13730,0
0.10106,7.56077,0.49441,0.70923,3.13391,0
0.12313,7.55214,0.49511,0.79294,3.13018,0
0.14287,7.54341,0.49601,0.86862,3.12622,0
0.16090,7.53457,0.49711,0.93822,3.12210,0
0.17758,7.52563,0.49840,1.00300,3.11784,0
0.19319,7.51659,0.49989,1.06384,3.11348,0
0.20791,7.50745,0.50156,1.12139,3.10903,0
0.22187,7.49822,0.50343,1.17612,3.10451,0
0.23518,7.48888,0.50549,1.22842,3.09992,0
0.24793,7.47945,0.50773,1.27858,3.09528,0
0.26017,7.46993,0.51016,1.32684,3.09059,0
0.27197,7.46031,0.51278,1.37341,3.08586,0
0.28337,7.45060,0.51558,1.41845,3.08109,0
0.29441,7.44080,0.51856,1.46211,3.07628,0
0.30511,7.43091,0.52172,1.50450,3.07144,0
0.31552,7.42093,0.52506,1.54572,3.06657,0
0.32565,7.41086,0.52858,1.58588,3.06168,0
0.33552,7.40071,0.53227,1.62504,3.05676,0
0.34515,7.39047,0.53614,1.66328,3.05181,0
0.35457,7.38015,0.54018,1.70066,3.04685,0
0.36377,7.36974,0.54439,1.73724,3.04186,0
0.37278,7.35925,0.54878,1.77307,3.03686,0
0.38161,7.34868,0.55333,1.80818,3.03184,0
0.39027,7.33804,0.55805,1.84262,3.02680,0
0.39877,7.32731,0.56294,1.87644,3.02174,0
0.40711,7.31651,0.56799,1.90965,3.01668,0
0.41531,7.30563,0.57320,1.94230,3.01159,0
0.42337,7.29467,0.57858,1.97440,3.00650,0
0.43130,7.28365,0.58411,2.00599,3.00139,0
0.43910,7.27255,0.58981,2.03710,2.99627,0
0.44679,7.26137,0.59566,2.06773,2.99113,0
0.45436,7.25013,0.60167,2.09792,2.98599,0
0.46182,7.23882,0.60783,2.12768,2.98083,0
0.46918,7.22745,0.61415,2.15703,2.97567,0
0.47644,7.21600,0.62062,2.18598,2.97050,0
0.48360,7.20449,0.62723,2.21456,2.96531,0
0.49067,7.19292,0.63400,2.24277,2.96012,0
0.49765,7.18128,0.64091,2.27063,2.95492,0
0.50454,7.16958,0.64797,2.29816,2.94971,0
0.51136,7.15782,0.65518,2.32535,2.94449,0
0.51809,7.14600,0.66253,2.35224,2.93927,0
0.52475,7.13413,0.67002,2.37882,2.93403,0
0.53133,7.12219,0.67764,2.40510,2.92879,0
0.53784,7.11020,0.68541,2.43111,2.92355,0
0.54428,7.09816,0.69332,2.45683,2.91829,0
0.55065,7.08606,0.70136,2.48229,2.91303,0
0.55695,7.07391,0.70954,2.50749,2.90777,0
0.56320,7.06170,0.71784,2.53244,2.90249,0
0.56938,7.04945,0.72628,2.55715,2.89721,0
0.57550,7.03715,0.73485,2.58162,2.89193,0
0.58157,7.02480,0.74355,2.60586,2.88664,0
0.58757,7.01240,0.75238,2.62988,2.88134,0
0.59353,6.99996,0.76133,2.65368,2.87604,0
0.59943,6.98748,0.77041,2.67727,2.87074,0
0.60527,6.97495,0.77961,2.70065,2.86542,0
0.61107,6.96238,0.78893,2.72384,2.86011,0
0.61682,6.94977,0.79837,2.74682,2.85479,0
0.62252,6.93711,0.80793,2.76962,2.84946,0
0.62817,6.92442,0.81761,2.79223,2.84413,0
0.63378,6.91170,0.82740,2.81465,2.83880,0
0.63934,6.89893,0.83730,2.83691,2.83346,0
0.64486,6.88614,0.84732,2.85898,2.82812,0
0.65034,6.87330,0.85745,2.88089,2.82277,0
0.65577,6.86044,0.86770,2.90263,2.81742,0
0.66116,6.84754,0.87804,2.92421,2.81206,0
0.66652,6.83462,0.88850,2.94564,2.80670,0
0.67183,6.82166,0.89906,2.96691,2.80134,0
0.67711,6.80868,0.90973,2.98802,2.79597,0
0.68235,6.79567,0.92050,3.00899,2.79060,0
0.68755,6.78264,0.93137,3.02982,2.78523,0
0.69272,6.76958,0.94234,3.05050,2.77985,0
0.69785,6.75649,0.95341,3.07104,2.77447,0
0.70295,6.74339,0.96457,3.09145,2.76909,0
0.70801,6.73026,0.97584,3.11172,2.76370,0
0.71304,6.71712,0.98719,3.13186,2.75831,0
0.71804,6.70395,0.99864,3.15187,2.75291,0
0.72301,6.69077,1.01018,3.17176,2.74752,0
0.72795,6.67758,1.02181,3.19152,2.74212,0
0.73285,6.66436,1.03353,3.21116,2.73672,0
0.73773,6.65114,1.04533,3.23068,2.73131,0
0.74257,6.63790,1.05722,3.25008,2.72590,0
0.74739,6.62465,1.06920,3.26937,2.72049,0
0.75218,6.61139,1.08126,3.28855,2.71508,0
0.75694,6.59812,1.09339,3.30761,2.70966,0
0.76167,6.58484,1.10561,3.32657,2.70424,0
0.76638,6.57156,1.11791,3.34541,2.69882,0
0.77106,6.55827,1.13028,3.36416,2.69339,0
0.77571,6.54497,1.14273,3.38279,2.68797,0
0.78034,6.53167,1.15526,3.40133,2.68254,0
0.78494,6.51838,1.16785,3.41976,2.67710,0
0.78952,6.50507,1.18052,3.43810,2.67167,0
0.79407,6.49177,1.19325,3.45634,2.66623,0
0.79860,6.47847,1.20606,3.47448,2.66079,0
0.80311,6.46518,1.21893,3.49253,2.65535,0
0.80759,6.45188,1.23187,3.51049,2.64991,0
0.81205,6.43860,1.24487,3.52836,2.64446,0
0.81649,6.42532,1.25793,3.54613,2.63901,0
0.82090,6.41204,1.27106,3.56382,2.63356,0
0.82530,6.39877,1.28424,3.58142,2.62811,0
0.82967,6.38552,1.29748,3.59893,2.62266,0
0.83402,6.37227,1.31078,3.61636,2.61799,0
0.83835,6.35904,1.32414,3.63370,2.61798,0
0.84266,6.34582,1.33755,3.65096,2.61793,0
0.84694,6.33261,1.35101,3.66815,2.61786,0
0.85121,6.31942,1.36452,3.68525,2.61775,0
0.85546,6.30625,1.37808,3.68525,2.61763,0
0.85971,6.29309,1.39169,3.66815,2.61747,0
0.86398,6.27995,1.40535,3.65096,2.61729,0
0.86826,6.26683,1.41905,3.63370,2.61708,0
0.87257,6.25374,1.43280,3.61636,2.61684,0
0.87690,6.24066,1.44658,3.59893,2.61657,0
0.88125,6.22761,1.46041,3.58142,2.61627,0
0.88562,6.21459,1.47428,3.56382,2.61594,0
0.89002,6.20159,1.48819,3.54613,2.61558,0
0.89443,6.18862,1.50213,3.52836,2.61518,0
0.89887,6.17567,1.51611,3.51049,2.61476,0
0.90333,6.16276,1.53012,3.49253,2.61431,0
0.90781,6.14988,1.54417,3.47448,2.61382,0
0.91232,6.13703,1.55824,3.45634,2.61330,0
0.91685,6.12421,1.57235,3.43810,2.61274,0
0.92140,6.11142,1.58648,3.41976,2.61215,0
0.92598,6.09867,1.60064,3.40133,2.61153,0
0.93058,6.08596,1.61482,3.38279,2.61087,0
0.93521,6.07329,1.62903,3.36416,2.61018,0
0.93986,6.06065,1.64326,3.34541,2.60944,0
0.94454,6.04805,1.65751,3.32657,2.60868,0
0.94925,6.03550,1.67179,3.30761,2.60787,0
0.95398,6.02299,1.68607,3.28855,2.60703,0
0.95874,6.01052,1.70038,3.26937,2.60614,0
0.96353,5.99810,1.71470,3.25008,2.60522,0
0.96835,5.98572,1.72903,3.23068,2.60426,0
0.97319,5.97339,1.74338,3.21116,2.60325,0
0.97807,5.96110,1.75774,3.19152,2.60221,0
0.98297,5.94887,1.77210,3.17176,2.60112,0
0.98791,5.93669,1.78648,3.15187,2.59999,0
0.99288,5.92456,1.80086,3.13186,2.59881,0
0.99788,5.91248,1.81524,3.11172,2.59759,0
1.00291,5.90046,1.82963,3.09145,2.59632,0
1.00797,5.88849,1.84403,3.07104,2.59501,0
1.01307,5.87658,1.85842,3.05050,2.59365,0
1.01820,5.86472,1.87281,3.02982,2.59224,0
1.02337,5.85293,1.88720,3.00899,2.59078,0
1.02857,5.84119,1.90158,2.98802,2.58927,0
1.03381,5.82952,1.91597,2.96691,2.58770,0
1.03909,5.81790,1.93034,2.94564,2.58609,0
1.04440,5.80636,1.94471,2.92421,2.58442,0
1.04976,5.79487,1.95906,2.90263,2.58269,0
1.05515,5.78345,1.97341,2.88089,2.58091,0
1.06058,5.77210,1.98774,2.85898,2.57907,0
1.06606,5.76082,2.00206,2.83691,2.57717,0
1.07158,5.74961,2.01637,2.81465,2.57521,0
1.07714,5.73846,2.03066,2.79223,2.57319,0
1.08275,5.72739,2.04493,2.76962,2.57110,0
1.08840,5.71639,2.05918,2.74682,2.56895,0
1.09410,5.70547,2.07341,2.72384,2.56674,0
1.09985,5.69462,2.08762,2.70065,2.56445,0
1.10564,5.68385,2.10180,2.67727,2.56210,0
1.11149,5.67315,2.11596,2.65368,2.55967,0
1.11739,5.66253,2.13009,2.62988,2.55717,0
1.12334,5.65200,2.14420,2.60586,2.55459,0
1.12935,5.64154,2.15827,2.58162,2.55194,0
1.13542,5.63117,2.17231,2.55715,2.54921,0
1.14154,5.62088,2.18633,2.53244,2.54639,0
1.14772,5.61067,2.20030,2.50749,2.54349,0
1.15396,5.60055,2.21425,2.48229,2.54050,0
1.16027,5.59052,2.22815,2.45683,2.53742,0
1.16664,5.58058,2.24202,2.43111,2.53425,0
1.17308,5.57072,2.25585,2.40510,2.53098,0
1.17959,5.56095,2.26964,2.37882,2.52761,0
1.18617,5.55128,2.28338,2.35224,2.52414,0
1.19283,5.54170,2.29708,2.32535,2.52057,0
1.19956,5.53221,2.31074,2.29816,2.51688,0
1.20637,5.52282,2.32435,2.27063,2.51309,0
1.21327,5.51353,2.33791,2.24277,2.50917,0
1.22025,5.50433,2.35142,2.21456,2.50514,0
1.22732,5.49523,2.36488,2.18598,2.50097,0
1.23448,5.48623,2.37828,2.15703,2.49668,0
1.24174,5.47733,2.39164,2.12768,2.49225,0
1.24910,5.46853,2.40494,2.09792,2.48768,0
1.25656,5.45984,2.41818,2.06773,2.48296,0
1.26413,5.45125,2.43136,2.03710,2.47808,0
1.27182,5.44277,2.44448,2.00599,2.47305,0
1.27962,5.43439,2.45755,1.97440,2.46784,0
1.28755,5.42612,2.47055,1.94230,2.46246,0
1.29561,5.41797,2.48348,1.90965,2.45689,0
1.30381,5.40992,2.49635,1.87644,2.45112,0
1.31215,5.40198,2.50916,1.84262,2.44515,0
1.32065,5.39416,2.52189,1.80818,2.43896,0
1.32931,5.38645,2.53456,1.77307,2.43254,0
1.33814,5.37885,2.54715,1.73724,2.42588,0
1.34715,5.37137,2.55967,1.70066,2.41896,0
1.35635,5.36401,2.57212,1.66328,2.41176,0
1.36577,5.35676,2.58449,1.62504,2.40427,0
1.37540,5.34964,2.59679,1.58588,2.39646,0
1.38527,5.34264,2.60900,1.54572,2.38832,0
1.39540,5.33576,2.62114,1.50450,2.37981,0
1.40581,5.32900,2.63319,1.46211,2.37091,0
1.41651,5.32237,2.64517,1.41845,2.36158,0
1.42755,5.31586,2.65706,1.37341,2.35178,0
1.43895,5.30948,2.66886,1.32684,2.34147,0
1.45075,5.30322,2.68058,1.27858,2.33059,0
1.46299,5.29710,2.69220,1.22842,2.31908,0
1.47574,5.29111,2.70374,1.17612,2.30685,0
1.48905,5.28524,2.71519,1.12139,2.29382,0
1.50301,5.27951,2.72654,1.06384,2.27987,0
1.51773,5.27392,2.73780,1.00300,2.26485,0
1.53334,5.26846,2.74897,0.93822,2.24855,0
1.55002,5.26313,2.76003,0.86862,2.23073,0
1.56805,5.25795,2.77100,0.79294,2.21100,0
1.58779,5.25290,2.78187,0.70923,2.18883,0
1.60986,5.24799,2.79264,0.61421,2.16335,0
1.63535,5.24322,2.80330,0.50150,2.13301,0
1.66657,5.23859,2.81386,0.35461,2.09452,0
1.75487,5.22557,2.84490,0.00000,2.09440,36996
1.75497,5.22557,2.84490,0.35461,2.09440,0
1.79913,5.23686,2.82506,0.50150,2.09588,0
1.83036,5.24790,2.80536,0.61421,2.09871,0
1.85586,5.25870,2.78580,0.70923,2.10212,0
1.87795,5.26927,2.76638,0.79294,2.10587,0
1.89770,5.27959,2.74710,0.86862,2.10985,0
1.91573,5.28968,2.72796,0.93822,2.11399,0
1.93242,5.29953,2.70896,1.00300,2.11827,0
1.94804,5.30915,2.69009,1.06384,2.12266,0
1.96276,5.31853,2.67137,1.12139,2.12713,0
1.97672,5.32768,2.65278,1.17612,2.13167,0
1.99004,5.33660,2.63432,1.22842,2.13628,0
2.00279,5.34528,2.61601,1.27858,2.14095,0
2.01504,5.35373,2.59782,1.32684,2.14566,0
2.02684,5.36196,2.57978,1.37341,2.15042,0
2.03825,5.36996,2.56187,1.41845,2.15521,0
2.04929,5.37773,2.54409,1.46211,2.16005,0
2.06000,5.38527,2.52645,1.50450,2.16491,0
2.07041,5.39259,2.50894,1.54572,2.16980,0
2.08054,5.39968,2.49156,1.58588,2.17472,0
2.09042,5.40655,2.47432,1.62504,2.17967,0
2.10006,5.41319,2.45720,1.66328,2.18464,0
2.10947,5.41962,2.44022,1.70066,2.18963,0
2.11868,5.42582,2.42337,1.73724,2.19464,0
2.12770,5.43181,2.40665,1.77307,2.19967,0
2.13653,5.43757,2.39006,1.80818,2.20472,0
2.14519,5.44312,2.37360,1.84262,2.20978,0
2.15369,5.44845,2.35727,1.87644,2.21486,0
2.16204,5.45357,2.34106,1.90965,2.21996,0
2.17024,5.45847,2.32499,1.94230,2.22507,0
2.17830,5.46316,2.30904,1.97440,2.23019,0
2.18624,5.46763,2.29322,2.00599,2.23532,0
2.19404,5.47190,2.27752,2.03710,2.24047,0
2.20173,5.47595,2.26195,2.06773,2.24563,0
2.20931,5.47979,2.24651,2.09792,2.25080,0
2.21677,5.48342,2.23119,2.12768,2.25598,0
2.22413,5.48685,2.21599,2.15703,2.26117,0
2.23139,5.49007,2.20092,2.18598,2.26637,0
2.23856,5.49308,2.18597,2.21456,2.27158,0
2.24563,5.49588,2.17115,2.24277,2.27680,0
2.25261,5.49849,2.15645,2.27063,2.28203,0
2.25951,5.50089,2.14187,2.29816,2.28727,0
2.26633,5.50309,2.12741,2.32535,2.29251,0
2.27306,5.50509,2.11307,2.35224,2.29777,0
2.27972,5.50688,2.09885,2.37882,2.30303,0
2.28630,5.50848,2.08476,2.40510,2.30829,0
2.29282,5.50988,2.07078,2.43111,2.31357,0
2.29926,5.51108,2.05692,2.45683,2.31885,0
2.30563,5.51209,2.04318,2.48229,2.32414,0
2.31194,5.51290,2.02956,2.50749,2.32943,0
2.31819,5.51352,2.01606,2.53244,2.33473,0
2.32437,5.51394,2.00267,2.55715,2.34003,0
2.33050,5.51418,1.98940,2.58162,2.34535,0
2.33656,5.51422,1.97625,2.60586,2.35066,0
2.34257,5.51407,1.96321,2.62988,2.35599,0
2.34853,5.51373,1.95029,2.65368,2.36132,0
2.35443,5.51320,1.93748,2.67727,2.36665,0
2.36028,5.51249,1.92478,2.70065,2.37199,0
2.36608,5.51159,1.91220,2.72384,2.37733,0
2.37183,5.51050,1.89973,2.74682,2.38268,0
2.37753,5.50923,1.88738,2.76962,2.38803,0
2.38319,5.50778,1.87514,2.79223,2.39339,0
2.38880,5.50614,1.86301,2.81465,2.39875,0
2.39436,5.50432,1.85099,2.83691,2.40412,0
2.39988,5.50232,1.83908,2.85898,2.40949,0
2.40536,5.50015,1.82728,2.88089,2.41487,0
2.41080,5.49779,1.81559,2.90263,2.42024,0
2.41619,5.49526,1.80401,2.92421,2.42563,0
2.42155,5.49254,1.79254,2.94564,2.43101,0
2.42686,5.48966,1.78118,2.96691,2.43640,0
2.43214,5.48660,1.76993,2.98802,2.44180,0
2.43738,5.48336,1.75878,3.00899,2.44720,0
2.44259,5.47996,1.74774,3.02982,2.45260,0
2.44776,5.47638,1.73680,3.05050,2.45800,0
2.45289,5.47263,1.72598,3.07104,2.46341,0
2.45799,5.46871,1.71525,3.09145,2.46882,0
2.46306,5.46462,1.70464,3.11172,2.47424,0
2.46809,5.46037,1.69412,3.13186,2.47966,0
2.47309,5.45594,1.68371,3.15187,2.48508,0
2.47806,5.45136,1.67341,3.17176,2.49050,0
2.48300,5.44660,1.66320,3.19152,2.49593,0
2.48791,5.44169,1.65310,3.21116,2.50136,0
2.49278,5.43661,1.64310,3.23068,2.50680,0
2.49763,5.43136,1.63321,3.25008,2.51223,0
2.50245,5.42596,1.62341,3.26937,2.51767,0
2.50724,5.42040,1.61372,3.28855,2.52311,0
2.51200,5.41468,1.60412,3.30761,2.52856,0
2.51674,5.40880,1.59462,3.32657,2.53401,0
2.52145,5.40276,1.58523,3.34541,2.53946,0
2.52613,5.39657,1.57593,3.36416,2.54491,0
2.53078,5.39022,1.56673,3.38279,2.55036,0
2.53541,5.38372,1.55762,3.40133,2.55582,0
2.54002,5.37707,1.54862,3.41976,2.56128,0
2.54460,5.37026,1.53971,3.43810,2.56674,0
2.54915,5.36330,1.53089,3.45634,2.57221,0
2.55369,5.35619,1.52218,3.47448,2.57768,0
2.55819,5.34894,1.51355,3.49253,2.58315,0
2.56268,5.34153,1.50503,3.51049,2.58862,0
2.56714,5.33398,1.49659,3.52836,2.59409,0
2.57158,5.32628,1.48825,3.54613,2.59957,0
2.57599,5.31844,1.48001,3.56382,2.60505,0
2.58039,5.31045,1.47185,3.58142,2.61053,0
2.58476,5.30232,1.46379,3.59893,2.61601,0
2.58911,5.29404,1.45582,3.61636,2.62149,0
2.59344,5.28563,1.44794,3.63370,2.62698,0
2.59776,5.27707,1.44015,3.65096,2.63247,0
2.60205,5.26838,1.43245,3.66815,2.63796,0
2.60631,5.25954,1.42484,3.68525,2.64345,0
2.61056,5.25057,1.41732,3.70227,2.64895,0
2.61479,5.24147,1.40989,3.71921,2.65445,0
2.61901,5.23222,1.40255,3.73608,2.65994,0
2.62320,5.22285,1.39530,3.75287,2.66544,0
2.62737,5.21334,1.38813,3.76959,2.67095,0
2.63153,5.20369,1.38105,3.78623,2.67645,0
2.63566,5.19392,1.37406,3.80280,2.68196,0
2.63978,5.18402,1.36715,3.81930,2.68746,0
2.64388,5.17398,1.36032,3.83573,2.69297,0
2.64796,5.16382,1.35359,3.85208,2.69848,0
2.65203,5.15353,1.34693,3.86837,2.70400,0
2.65608,5.14311,1.34036,3.88459,2.70951,0
2.66011,5.13257,1.33387,3.90074,2.71503,0
2.66413,5.12190,1.32747,3.91683,2.72054,0
2.66812,5.11111,1.32115,3.93285,2.72606,0
2.67211,5.10019,1.31491,3.94880,2.73158,0
2.67607,5.08916,1.30875,3.96469,2.73711,0
2.68002,5.07800,1.30268,3.98052,2.74263,0
2.68396,5.06672,1.29668,3.99629,2.74816,0
2.68788,5.05533,1.29076,4.01199,2.75368,0
2.69178,5.04381,1.28493,4.02763,2.75921,0
2.69567,5.03218,1.27917,4.04321,2.76474,0
2.69954,5.02044,1.27349,4.05873,2.77027,0
2.70340,5.00858,1.26789,4.07419,2.77581,0
2.70725,4.99660,1.26236,4.08960,2.78134,0
2.71107,4.98451,1.25691,4.10494,2.78688,0
2.71489,4.97231,1.25154,4.12023,2.79241,0
2.71869,4.96000,1.24625,4.13546,2.79795,0
2.72248,4.94758,1.24103,4.15064,2.80349,0
2.72625,4.93505,1.23589,4.16576,2.80903,0
2.73001,4.92242,1.23082,4.18083,2.81458,0
2.73376,4.90967,1.22582,4.19584,2.82012,0
2.73749,4.89682,1.22090,4.21080,2.82566,0
2.74121,4.88386,1.21605,4.22570,2.83121,0
2.74492,4.87080,1.21128,4.24056,2.83676,0
2.74861,4.85764,1.20657,4.25536,2.84231,0
2.75229,4.84437,1.20194,4.27011,2.84786,0
2.75596,4.83101,1.19738,4.28481,2.85341,0
2.75961,4.81754,1.19289,4.29945,2.85896,0
2.76326,4.80397,1.18847,4.31405,2.86452,0
2.76689,4.79031,1.18412,4.32860,2.87007,0
2.77050,4.77655,1.17984,4.34311,2.87563,0
2.77411,4.76269,1.17562,4.35756,2.88119,0
2.77770,4.74874,1.17148,4.37196,2.88674,0
2.78129,4.73469,1.16740,4.38632,2.89230,0
2.78486,4.72055,1.16339,4.40063,2.89787,0
2.78842,4.70632,1.15945,4.41490,2.90343,0
2.79196,4.69199,1.15557,4.42912,2.90899,0
2.79550,4.67758,1.15176,4.44329,2.91456,0
2.79903,4.66307,1.14802,4.45742,2.92012,0
2.80254,4.64848,1.14434,4.47150,2.92569,0
2.80604,4.63380,1.14072,4.48554,2.93125,0
2.80953,4.61903,1.13717,4.49954,2.93682,0
2.81301,4.60418,1.13368,4.51349,2.94239,0
2.81648,4.58924,1.13025,4.52740,2.94796,0
2.81994,4.57422,1.12689,4.54126,2.95354,0
2.82339,4.55912,1.12359,4.55509,2.95911,0
2.82683,4.54393,1.12035,4.56887,2.96468,0
2.83026,4.52867,1.11717,4.58261,2.97026,0
2.83368,4.51332,1.11405,4.59631,2.97583,0
2.83708,4.49790,1.11099,4.60997,2.98141,0
2.84048,4.48239,1.10799,4.62359,2.98699,0
2.84387,4.46682,1.10505,4.63717,2.99257,0
2.84725,4.45116,1.10216,4.65071,2.99815,0
2.85061,4.43543,1.09934,4.66421,3.00373,0
2.85397,4.41963,1.09657,4.67767,3.00931,0
2.85732,4.40375,1.09386,4.69109,3.01489,0
2.86066,4.38781,1.09121,4.70447,3.02048,0
2.86399,4.37179,1.08861,4.71782,3.02606,0
2.86731,4.35570,1.08607,4.73113,3.03165,0
2.87062,4.33954,1.08358,4.74440,3.03723,0
2.87392,4.32332,1.08115,4.74440,3.04282,0
2.87722,4.30703,1.07877,4.73113,3.04843,0
2.88053,4.29067,1.07644,4.71782,3.05406,0
2.88385,4.27425,1.07417,4.70447,3.05973,0
2.88718,4.25776,1.07195,4.69109,3.06543,0
2.89052,4.24121,1.06978,4.67767,3.07117,0
2.89387,4.22460,1.06767,4.66421,3.07693,0
2.89722,4.20793,1.06560,4.65071,3.08051,0
2.90059,4.19119,1.06359,4.63717,3.08052,0
2.90397,4.17440,1.06162,4.62359,3.08055,0
2.90736,4.15755,1.05971,4.60997,3.08060,0
2.91075,4.14064,1.05784,4.59631,3.08067,0
2.91416,4.12368,1.05603,4.58261,3.08076,0
2.91758,4.10666,1.05426,4.56887,3.08086,0
2.92101,4.08959,1.05254,4.55509,3.08098,0
2.92444,4.07246,1.05087,4.54126,3.08112,0
2.92789,4.05529,1.04924,4.52740,3.08128,0
2.93135,4.03806,1.04766,4.51349,3.08146,0
2.93482,4.02078,1.04612,4.49954,3.08165,0
2.93830,4.00345,1.04463,4.48554,3.08187,0
2.94180,3.98607,1.04319,4.47150,3.08210,0
2.94530,3.96865,1.04179,4.45742,3.08235,0
2.94881,3.95117,1.04043,4.44329,3.08262,0
2.95234,3.93366,1.03912,4.42912,3.08292,0
2.95587,3.91610,1.03785,4.41490,3.08323,0
2.95942,3.89849,1.03662,4.40063,3.08356,0
2.96298,3.88085,1.03543,4.38632,3.08391,0
2.96655,3.86316,1.03429,4.37196,3.08428,0
2.97013,3.84543,1.03318,4.35756,3.08468,0
2.97373,3.82766,1.03212,4.34311,3.08509,0
2.97733,3.80985,1.03109,4.32860,3.08552,0
2.98095,3.79201,1.03011,4.31405,3.08598,0
2.98458,3.77413,1.02916,4.29945,3.08646,0
2.98822,3.75621,1.02825,4.28481,3.08696,0
2.99188,3.73826,1.02738,4.27011,3.08748,0
2.99555,3.72028,1.02655,4.25536,3.08802,0
2.99923,3.70226,1.02576,4.24056,3.08859,0
3.00292,3.68421,1.02500,4.22570,3.08917,0
3.00663,3.66613,1.02427,4.21080,3.08979,0
3.01035,3.64802,1.02359,4.19584,3.09042,0
3.01408,3.62988,1.02293,4.18083,3.09108,0
3.01782,3.61171,1.02232,4.16576,3.09176,0
3.02158,3.59352,1.02173,4.15064,3.09246,0
3.02536,3.57530,1.02118,4.13546,3.09319,0
3.02914,3.55706,1.02066,4.12023,3.09395,0
3.03295,3.53879,1.02018,4.10494,3.09472,0
3.03676,3.52050,1.01973,4.08960,3.09553,0
3.04059,3.50219,1.01930,4.07419,3.09635,0
3.04444,3.48386,1.01891,4.05873,3.09721,0
3.04829,3.46550,1.01855,4.04321,3.09809,0
3.05217,3.44713,1.01822,4.02763,3.09899,0
3.05606,3.42874,1.01792,4.01199,3.09992,0
3.05996,3.41033,1.01765,3.99629,3.10088,0
3.06388,3.39191,1.01741,3.98052,3.10187,0
3.06781,3.37347,1.01720,3.96469,3.10288,0
3.07176,3.35502,1.01701,3.94880,3.10392,0
3.07573,3.33655,1.01685,3.93285,3.10499,0
3.07971,3.31808,1.01672,3.91683,3.10609,0
3.08371,3.29959,1.01661,3.90074,3.10721,0
3.08773,3.28109,1.01653,3.88459,3.10836,0
3.09176,3.26258,1.01647,3.86837,3.10955,0
3.09581,3.24406,1.01644,3.85208,3.11076,0
3.09987,3.22554,1.01643,3.83573,3.11200,0
3.10396,3.20701,1.01645,3.81930,3.11328,0
3.10806,3.18848,1.01649,3.80280,3.11458,0
3.11217,3.16994,1.01655,3.78623,3.11592,0
3.11631,3.15139,1.01664,3.76959,3.11729,0
3.12047,3.13285,1.01674,3.75287,3.11869,0
3.12464,3.11430,1.01687,3.73608,3.12012,0
3.12883,3.09576,1.01702,3.71921,3.12159,0
3.13304,3.07721,1.01719,3.70227,3.12308,0
3.13727,3.05867,1.01738,3.68525,3.12462,0
3.14152,3.04013,1.01759,3.66815,3.12618,0
3.14579,3.02159,1.01781,3.65096,3.12779,0
3.15008,3.00305,1.01806,3.63370,3.12942,0
3.15439,2.98453,1.01832,3.61636,3.13110,0
3.15872,2.96600,1.01860,3.59893,3.13281,0
3.16307,2.94749,1.01890,3.58142,3.13455,0
