time,x_pos,y_pos,velocity,rotation,action
0.00010,7.56503,0.34807,0.00000,-3.14159,16
0.00020,7.56503,0.34807,0.35464,-3.14159,0
0.04441,7.55732,0.34821,0.50153,3.14023,0
0.07567,7.54957,0.34864,0.61425,3.13762,0
0.10119,7.54178,0.34934,0.70928,3.13449,0
0.12329,7.53396,0.35033,0.79299,3.13104,0
0.14306,7.52610,0.35159,0.86868,3.12738,0
0.16111,7.51820,0.35312,0.93828,3.12357,0
0.17782,7.51027,0.35492,1.00307,3.11963,0
0.19345,7.50230,0.35700,1.06391,3.11560,0
0.20818,7.49429,0.35933,1.12146,3.11148,0
0.22216,7.48625,0.36194,1.17620,3.10730,0
0.23549,7.47817,0.36480,1.22850,3.10306,0
0.24825,7.47006,0.36792,1.27866,3.09877,0
0.26051,7.46191,0.37130,1.32693,3.09444,0
0.27233,7.45372,0.37493,1.37351,3.09006,0
0.28374,7.44550,0.37881,1.41855,3.08565,0
0.29479,7.43725,0.38294,1.46221,3.08120,0
0.30551,7.42896,0.38732,1.50460,3.07673,0
0.31593,7.42063,0.39194,1.54583,3.07223,0
0.32608,7.41228,0.39681,1.58599,3.06770,0
0.33596,7.40388,0.40191,1.62515,3.06315,0
0.34561,7.39546,0.40725,1.66340,3.05858,0
0.35503,7.38700,0.41282,1.70078,3.05399,0
0.36425,7.37850,0.41863,1.73736,3.04938,0
0.37327,7.36998,0.42467,1.77319,3.04475,0
0.38212,7.36141,0.43093,1.80830,3.04011,0
0.39079,7.35282,0.43741,1.84275,3.03545,0
0.39929,7.34419,0.44412,1.87657,3.03078,0
0.40765,7.33554,0.45105,1.90978,3.02609,0
0.41586,7.32684,0.45820,1.94243,3.02139,0
0.42393,7.31812,0.46556,1.97454,3.01668,0
0.43187,7.30936,0.47313,2.00613,3.01196,0
0.43968,7.30058,0.48092,2.03724,3.00722,0
0.44738,7.29176,0.48891,2.06787,3.00248,0
0.45496,7.28291,0.49710,2.09806,2.99772,0
0.46243,7.27402,0.50550,2.12783,2.99295,0
0.46980,7.26511,0.51410,2.15718,2.98818,0
0.47707,7.25617,0.52290,2.18613,2.98339,0
0.48424,7.24719,0.53189,2.21471,2.97860,0
0.49132,7.23819,0.54107,2.24293,2.97380,0
0.49831,7.22915,0.55045,2.27079,2.96899,0
0.50521,7.22008,0.56001,2.29831,2.96417,0
0.51203,7.21099,0.56976,2.32551,2.95935,0
0.51877,7.20186,0.57969,2.35240,2.95452,0
0.52544,7.19271,0.58981,2.37898,2.94968,0
0.53203,7.18352,0.60010,2.40527,2.94484,0
0.53854,7.17431,0.61057,2.43127,2.93998,0
0.54499,7.16506,0.62121,2.45700,2.93513,0
0.55137,7.15579,0.63202,2.48246,2.93026,0
0.55769,7.14649,0.64300,2.50767,2.92539,0
0.56394,7.13716,0.65415,2.53262,2.92052,0
0.57013,7.12780,0.66546,2.55733,2.91564,0
0.57626,7.11842,0.67693,2.58180,2.91075,0
0.58233,7.10900,0.68856,2.60604,2.90586,0
0.58835,7.09956,0.70035,2.63006,2.90096,0
0.59431,7.09009,0.71229,2.65387,2.89606,0
0.60022,7.08060,0.72438,2.67746,2.89116,0
0.60607,7.07107,0.73662,2.70084,2.88624,0
0.61188,7.06152,0.74901,2.72402,2.88133,0
0.61763,7.05195,0.76154,2.74701,2.87641,0
0.62334,7.04234,0.77421,2.76981,2.87148,0
0.62900,7.03271,0.78703,2.79242,2.86656,0
0.63461,7.02305,0.79998,2.81485,2.86162,0
0.64018,7.01337,0.81306,2.83710,2.85669,0
0.64571,7.00367,0.82628,2.85918,2.85175,0
0.65119,6.99393,0.83963,2.88109,2.84680,0
0.65663,6.98417,0.85310,2.90283,2.84185,0
0.66203,6.97439,0.86670,2.92442,2.83690,0
0.66739,6.96458,0.88042,2.94584,2.83195,0
0.67272,6.95474,0.89426,2.96711,2.82699,0
0.67800,6.94488,0.90822,2.98823,2.82203,0
0.68325,6.93500,0.92230,3.00920,2.81706,0
0.68846,6.92509,0.93648,3.03003,2.81209,0
0.69363,6.91516,0.95078,3.05071,2.80712,0
0.69877,6.90520,0.96518,3.07125,2.80215,0
0.70387,6.89522,0.97969,3.09166,2.79717,0
0.70895,6.88522,0.99430,3.11193,2.79219,0
0.71398,6.87519,1.00902,3.13207,2.78720,0
0.71899,6.86514,1.02383,3.15209,2.78222,0
0.72396,6.85507,1.03873,3.17198,2.77723,0
0.72890,6.84497,1.05373,3.19174,2.77223,0
0.73382,6.83486,1.06882,3.21138,2.76724,0
0.73870,6.82471,1.08400,3.23090,2.76224,0
0.74355,6.81455,1.09927,3.25031,2.75724,0
0.74837,6.80437,1.11461,3.26960,2.75223,0
0.75317,6.79416,1.13004,3.28877,2.74723,0
0.75794,6.78393,1.14555,3.30784,2.74222,0
0.76268,6.77368,1.16113,3.32680,2.73721,0
0.76739,6.76341,1.17679,3.34564,2.73220,0
0.77207,6.75312,1.19252,3.36439,2.72718,0
0.77673,6.74280,1.20831,3.38303,2.72216,0
0.78137,6.73247,1.22418,3.40156,2.71714,0
0.78598,6.72211,1.24010,3.42000,2.71212,0
0.79056,6.71174,1.25609,3.43834,2.70709,0
0.79512,6.70134,1.27214,3.45658,2.70207,0
0.79966,6.69093,1.28824,3.47473,2.69704,0
0.80417,6.68049,1.30440,3.49278,2.69201,0
0.80866,6.67004,1.32061,3.51073,2.68697,0
0.81312,6.65956,1.33687,3.52860,2.68194,0
0.81756,6.64907,1.35318,3.54638,2.67690,0
0.82198,6.63856,1.36953,3.56406,2.67186,0
0.82638,6.62803,1.38592,3.58166,2.66682,0
0.83076,6.61748,1.40236,3.59918,2.66178,0
0.83512,6.60691,1.41882,3.61661,2.65673,0
0.83945,6.59632,1.43533,3.63395,2.65168,0
0.84377,6.58572,1.45187,3.65122,2.64663,0
0.84806,6.57510,1.46843,3.66840,2.64158,0
0.85233,6.56446,1.48503,3.68550,2.63653,0
0.85659,6.55380,1.50165,3.70253,2.63148,0
0.86082,6.54312,1.51829,3.71947,2.62642,0
0.86504,6.53243,1.53495,3.73634,2.62136,0
0.86923,6.52172,1.55163,3.75313,2.61799,0
0.87341,6.51100,1.56832,3.76985,2.61797,0
0.87757,6.50025,1.58503,3.78649,2.61793,0
0.88171,6.48950,1.60175,3.80306,2.61786,0
0.88583,6.47872,1.61847,3.81956,2.61777,0
0.88993,6.46793,1.63520,3.81956,2.61765,0
0.89404,6.45712,1.65194,3.80306,2.61752,0
0.89816,6.44630,1.66867,3.78649,2.61735,0
0.90230,6.43546,1.68540,3.76985,2.61717,0
0.90646,6.42461,1.70213,3.75313,2.61696,0
0.91064,6.41374,1.71886,3.73634,2.61672,0
0.91483,6.40286,1.73557,3.71947,2.61646,0
0.91905,6.39196,1.75227,3.70253,2.61617,0
0.92328,6.38105,1.76896,3.68550,2.61586,0
0.92754,6.37012,1.78563,3.66840,2.61551,0
0.93181,6.35918,1.80228,3.65122,2.61515,0
0.93610,6.34823,1.81891,3.63395,2.61475,0
0.94042,6.33726,1.83552,3.61661,2.61433,0
0.94475,6.32628,1.85210,3.59918,2.61388,0
0.94911,6.31528,1.86865,3.58166,2.61340,0
0.95349,6.30428,1.88517,3.56406,2.61289,0
0.95788,6.29326,1.90166,3.54638,2.61235,0
0.96231,6.28222,1.91811,3.52860,2.61179,0
0.96675,6.27118,1.93453,3.51073,2.61119,0
0.97121,6.26012,1.95090,3.49278,2.61056,0
0.97570,6.24905,1.96723,3.47473,2.60990,0
0.98021,6.23796,1.98352,3.45658,2.60921,0
0.98475,6.22687,1.99975,3.43834,2.60849,0
0.98931,6.21576,2.01594,3.42000,2.60773,0
0.99389,6.20464,2.03207,3.40156,2.60694,0
0.99850,6.19351,2.04815,3.38303,2.60612,0
1.00314,6.18237,2.06417,3.36439,2.60526,0
1.00780,6.17122,2.08013,3.34564,2.60437,0
1.01248,6.16006,2.09602,3.32680,2.60344,0
1.01719,6.14889,2.11186,3.30784,2.60248,0
1.02193,6.13771,2.12762,3.28877,2.60148,0
1.02670,6.12651,2.14331,3.26960,2.60044,0
1.03150,6.11531,2.15894,3.25031,2.59937,0
1.03632,6.10410,2.17448,3.23090,2.59825,0
1.04117,6.09288,2.18995,3.21138,2.59710,0
1.04605,6.08164,2.20534,3.19174,2.59591,0
1.05096,6.07040,2.22065,3.17198,2.59467,0
1.05591,6.05915,2.23587,3.15209,2.59340,0
1.06088,6.04790,2.25101,3.13207,2.59208,0
1.06589,6.03663,2.26606,3.11193,2.59072,0
1.07092,6.02535,2.28101,3.09166,2.58931,0
1.07600,6.01407,2.29587,3.07125,2.58786,0
1.08110,6.00278,2.31064,3.05071,2.58637,0
1.08624,5.99148,2.32530,3.03003,2.58482,0
1.09141,5.98017,2.33987,3.00920,2.58323,0
1.09662,5.96886,2.35433,2.98823,2.58159,0
1.10187,5.95753,2.36868,2.96711,2.57991,0
1.10715,5.94621,2.38292,2.94584,2.57817,0
1.11247,5.93487,2.39706,2.92442,2.57637,0
1.11784,5.92353,2.41107,2.90283,2.57453,0
1.12324,5.91218,2.42498,2.88109,2.57263,0
1.12868,5.90082,2.43876,2.85918,2.57068,0
1.13416,5.88946,2.45242,2.83710,2.56867,0
1.13969,5.87809,2.46596,2.81485,2.56660,0
1.14526,5.86672,2.47938,2.79242,2.56447,0
1.15087,5.85534,2.49266,2.76981,2.56229,0
1.15653,5.84396,2.50582,2.74701,2.56004,0
1.16224,5.83257,2.51884,2.72402,2.55772,0
1.16799,5.82117,2.53172,2.70084,2.55534,0
1.17380,5.80977,2.54447,2.67746,2.55290,0
1.17965,5.79837,2.55708,2.65387,2.55038,0
1.18556,5.78696,2.56954,2.63006,2.54779,0
1.19152,5.77555,2.58186,2.60604,2.54513,0
1.19754,5.76413,2.59403,2.58180,2.54240,0
1.20361,5.75271,2.60605,2.55733,2.53959,0
1.20974,5.74128,2.61792,2.53262,2.53670,0
1.21593,5.72986,2.62963,2.50767,2.53373,0
1.22218,5.71843,2.64118,2.48246,2.53068,0
1.22850,5.70699,2.65258,2.45700,2.52754,0
1.23488,5.69555,2.66381,2.43127,2.52431,0
1.24133,5.68411,2.67488,2.40527,2.52099,0
1.24784,5.67267,2.68578,2.37898,2.51757,0
1.25443,5.66123,2.69651,2.35240,2.51406,0
1.26110,5.64978,2.70707,2.32551,2.51045,0
1.26784,5.63833,2.71745,2.29831,2.50673,0
1.27466,5.62688,2.72766,2.27079,2.50290,0
1.28156,5.61543,2.73769,2.24293,2.49896,0
1.28855,5.60397,2.74753,2.21471,2.49490,0
1.29563,5.59252,2.75719,2.18613,2.49073,0
1.30280,5.58106,2.76666,2.15718,2.48643,0
1.31007,5.56960,2.77595,2.12783,2.48199,0
1.31744,5.55815,2.78504,2.09806,2.47742,0
1.32491,5.54669,2.79394,2.06787,2.47271,0
1.33249,5.53523,2.80264,2.03724,2.46785,0
1.34019,5.52377,2.81115,2.00613,2.46284,0
1.34800,5.51231,2.81945,1.97454,2.45766,0
1.35594,5.50085,2.82755,1.94243,2.45232,0
1.36401,5.48940,2.83544,1.90978,2.44679,0
1.37222,5.47794,2.84312,1.87657,2.44108,0
1.38058,5.46648,2.85059,1.84275,2.43517,0
1.38908,5.45503,2.85785,1.80830,2.42905,0
1.39775,5.44357,2.86490,1.77319,2.42272,0
1.40660,5.43212,2.87172,1.73736,2.41615,0
1.41562,5.42067,2.87832,1.70078,2.40933,0
1.42484,5.40922,2.88470,1.66340,2.40225,0
1.43426,5.39777,2.89086,1.62515,2.39488,0
1.44391,5.38633,2.89678,1.58599,2.38722,0
1.45379,5.37488,2.90248,1.54583,2.37923,0
1.46394,5.36344,2.90794,1.50460,2.37089,0
1.47435,5.35201,2.91317,1.46221,2.36218,0
1.48508,5.34057,2.91816,1.41855,2.35306,0
1.49613,5.32914,2.92291,1.37351,2.34348,0
1.50754,5.31771,2.92741,1.32693,2.33342,0
1.51936,5.30629,2.93167,1.27866,2.32281,0
1.53162,5.29487,2.93569,1.22850,2.31160,0
1.54438,5.28345,2.93945,1.17620,2.29970,0
1.55771,5.27204,2.94296,1.12146,2.28704,0
1.57169,5.26063,2.94621,1.06391,2.27349,0
1.58642,5.24922,2.94921,1.00307,2.25891,0
1.60205,5.23783,2.95195,0.93828,2.24312,0
1.61876,5.22643,2.95443,0.86868,2.22587,0
1.63681,5.21504,2.95664,0.79299,2.20679,0
1.65658,5.20366,2.95858,0.70928,2.18538,0
1.67868,5.19228,2.96026,0.61425,2.16079,0
1.70420,5.18090,2.96166,0.50153,2.13156,0
1.73546,5.16954,2.96279,0.35464,2.09452,0
1.82388,5.13547,2.96450,0.00000,2.09440,36996
1.82398,5.13547,2.96450,0.35464,2.09440,0
1.86804,5.14663,2.94487,0.50153,2.09586,0
1.89920,5.15756,2.92537,0.61425,2.09866,0
1.92464,5.16825,2.90600,0.70928,2.10203,0
1.94667,5.17871,2.88676,0.79299,2.10573,0
1.96638,5.18894,2.86764,0.86868,2.10966,0
1.98436,5.19893,2.84865,0.93828,2.11376,0
2.00102,5.20870,2.82979,1.00307,2.11799,0
2.01660,5.21823,2.81106,1.06391,2.12232,0
2.03129,5.22754,2.79245,1.12146,2.12674,0
2.04522,5.23662,2.77396,1.17620,2.13124,0
2.05851,5.24547,2.75561,1.22850,2.13579,0
2.07123,5.25410,2.73737,1.27866,2.14040,0
2.08345,5.26250,2.71926,1.32693,2.14506,0
2.09522,5.27068,2.70128,1.37351,2.14976,0
2.10660,5.27863,2.68342,1.41855,2.15450,0
2.11762,5.28636,2.66568,1.46221,2.15928,0
2.12830,5.29388,2.64806,1.50460,2.16409,0
2.13869,5.30117,2.63057,1.54583,2.16892,0
2.14880,5.30824,2.61320,1.58599,2.17378,0
2.15865,5.31509,2.59594,1.62515,2.17867,0
2.16827,5.32173,2.57881,1.66340,2.18358,0
2.17766,5.32815,2.56180,1.70078,2.18852,0
2.18685,5.33436,2.54491,1.73736,2.19347,0
2.19585,5.34035,2.52815,1.77319,2.19844,0
2.20466,5.34613,2.51149,1.80830,2.20343,0
2.21330,5.35169,2.49496,1.84275,2.20843,0
2.22178,5.35705,2.47855,1.87657,2.21345,0
2.23011,5.36219,2.46225,1.90978,2.21849,0
2.23829,5.36712,2.44608,1.94243,2.22354,0
2.24633,5.37185,2.43001,1.97454,2.22860,0
2.25425,5.37636,2.41407,2.00613,2.23368,0
2.26204,5.38067,2.39824,2.03724,2.23876,0
2.26971,5.38478,2.38253,2.06787,2.24386,0
2.27727,5.38868,2.36693,2.09806,2.24897,0
2.28471,5.39237,2.35145,2.12783,2.25409,0
2.29206,5.39586,2.33609,2.15718,2.25922,0
2.29930,5.39915,2.32083,2.18613,2.26436,0
2.30645,5.40224,2.30569,2.21471,2.26951,0
2.31351,5.40513,2.29067,2.24293,2.27467,0
2.32047,5.40782,2.27575,2.27079,2.27984,0
2.32735,5.41031,2.26095,2.29831,2.28501,0
2.33415,5.41260,2.24627,2.32551,2.29020,0
2.34087,5.41469,2.23169,2.35240,2.29539,0
2.34752,5.41659,2.21722,2.37898,2.30059,0
2.35409,5.41830,2.20287,2.40527,2.30579,0
2.36058,5.41981,2.18862,2.43127,2.31100,0
2.36701,5.42113,2.17449,2.45700,2.31622,0
2.37337,5.42226,2.16046,2.48246,2.32145,0
2.37966,5.42320,2.14655,2.50767,2.32668,0
2.38590,5.42394,2.13274,2.53262,2.33192,0
2.39207,5.42450,2.11904,2.55733,2.33716,0
2.39818,5.42487,2.10545,2.58180,2.34241,0
2.40423,5.42505,2.09197,2.60604,2.34767,0
2.41023,5.42505,2.07859,2.63006,2.35293,0
2.41617,5.42486,2.06532,2.65387,2.35819,0
2.42206,5.42449,2.05215,2.67746,2.36346,0
2.42789,5.42393,2.03909,2.70084,2.36874,0
2.43368,5.42319,2.02614,2.72402,2.37402,0
2.43941,5.42227,2.01329,2.74701,2.37931,0
2.44510,5.42117,2.00055,2.76981,2.38460,0
2.45075,5.41989,1.98791,2.79242,2.38989,0
2.45634,5.41843,1.97537,2.81485,2.39519,0
2.46189,5.41680,1.96294,2.83710,2.40050,0
2.46740,5.41499,1.95061,2.85918,2.40580,0
2.47287,5.41300,1.93838,2.88109,2.41112,0
2.47829,5.41083,1.92625,2.90283,2.41643,0
2.48367,5.40850,1.91423,2.92442,2.42175,0
2.48902,5.40599,1.90230,2.94584,2.42708,0
2.49432,5.40330,1.89048,2.96711,2.43240,0
2.49959,5.40045,1.87876,2.98823,2.43773,0
2.50482,5.39743,1.86713,3.00920,2.44307,0
2.51001,5.39423,1.85561,3.03003,2.44841,0
2.51517,5.39087,1.84418,3.05071,2.45375,0
2.52029,5.38734,1.83286,3.07125,2.45909,0
2.52538,5.38365,1.82163,3.09166,2.46444,0
2.53043,5.37979,1.81050,3.11193,2.46979,0
2.53545,5.37576,1.79946,3.13207,2.47515,0
2.54044,5.37158,1.78852,3.15209,2.48051,0
2.54540,5.36723,1.77768,3.17198,2.48587,0
2.55033,5.36271,1.76694,3.19174,2.49123,0
2.55522,5.35804,1.75629,3.21138,2.49660,0
2.56009,5.35321,1.74574,3.23090,2.50197,0
2.56493,5.34822,1.73528,3.25031,2.50734,0
2.56973,5.34307,1.72491,3.26960,2.51272,0
2.57451,5.33776,1.71464,3.28877,2.51810,0
2.57927,5.33230,1.70446,3.30784,2.52348,0
2.58399,5.32668,1.69438,3.32680,2.52886,0
2.58869,5.32091,1.68439,3.34564,2.53425,0
2.59336,5.31498,1.67448,3.36439,2.53964,0
2.59800,5.30891,1.66468,3.38303,2.54503,0
2.60262,5.30268,1.65496,3.40156,2.55042,0
2.60722,5.29630,1.64533,3.42000,2.55582,0
2.61178,5.28977,1.63580,3.43834,2.56122,0
2.61633,5.28310,1.62635,3.45658,2.56662,0
2.62085,5.27628,1.61700,3.47473,2.57202,0
2.62535,5.26930,1.60773,3.49278,2.57743,0
2.62982,5.26219,1.59855,3.51073,2.58283,0
2.63427,5.25493,1.58946,3.52860,2.58825,0
2.63870,5.24752,1.58046,3.54638,2.59366,0
2.64311,5.23998,1.57154,3.56406,2.59907,0
2.64749,5.23229,1.56272,3.58166,2.60449,0
2.65185,5.22446,1.55398,3.59918,2.60991,0
2.65620,5.21649,1.54532,3.61661,2.61533,0
2.66052,5.20838,1.53675,3.63395,2.62075,0
2.66482,5.20013,1.52827,3.65122,2.62617,0
2.66910,5.19175,1.51987,3.66840,2.63160,0
2.67336,5.18323,1.51156,3.68550,2.63703,0
2.67760,5.17458,1.50333,3.70253,2.64246,0
2.68182,5.16579,1.49518,3.71947,2.64789,0
2.68602,5.15686,1.48712,3.73634,2.65333,0
2.69020,5.14781,1.47914,3.75313,2.65876,0
2.69437,5.13862,1.47124,3.76985,2.66420,0
2.69851,5.12930,1.46343,3.78649,2.66964,0
2.70264,5.11986,1.45569,3.80306,2.67508,0
2.70675,5.11028,1.44804,3.81956,2.68053,0
2.71084,5.10058,1.44047,3.83599,2.68597,0
2.71491,5.09075,1.43297,3.85235,2.69142,0
2.71897,5.08079,1.42556,3.86864,2.69687,0
2.72301,5.07071,1.41823,3.88486,2.70231,0
2.72703,5.06051,1.41098,3.90101,2.70777,0
2.73104,5.05018,1.40380,3.91710,2.71322,0
2.73503,5.03973,1.39671,3.93312,2.71867,0
2.73900,5.02916,1.38969,3.94908,2.72413,0
2.74296,5.01847,1.38275,3.96497,2.72959,0
2.74690,5.00766,1.37588,3.98080,2.73505,0
2.75082,4.99673,1.36909,3.99656,2.74051,0
2.75473,4.98569,1.36238,4.01227,2.74597,0
2.75863,4.97453,1.35574,4.02791,2.75144,0
2.76251,4.96325,1.34918,4.04349,2.75690,0
2.76637,4.95186,1.34270,4.05901,2.76237,0
2.77022,4.94035,1.33628,4.07448,2.76784,0
2.77406,4.92874,1.32995,4.08988,2.77330,0
2.77788,4.91701,1.32368,4.10523,2.77878,0
2.78168,4.90517,1.31749,4.12052,2.78425,0
2.78548,4.89322,1.31137,4.13575,2.78972,0
2.78925,4.88116,1.30533,4.15093,2.79520,0
2.79302,4.86899,1.29935,4.16605,2.80067,0
2.79677,4.85672,1.29345,4.18112,2.80615,0
2.80051,4.84434,1.28762,4.19613,2.81163,0
2.80423,4.83185,1.28185,4.21109,2.81711,0
2.80794,4.81926,1.27616,4.22600,2.82259,0
2.81164,4.80657,1.27054,4.24085,2.82808,0
2.81533,4.79378,1.26499,4.25565,2.83356,0
2.81900,4.78088,1.25951,4.27040,2.83904,0
2.82266,4.76789,1.25409,4.28510,2.84453,0
2.82630,4.75479,1.24874,4.29975,2.85002,0
2.82994,4.74160,1.24346,4.31435,2.85551,0
2.83356,4.72831,1.23825,4.32890,2.86100,0
2.83717,4.71492,1.23311,4.34341,2.86649,0
2.84077,4.70144,1.22803,4.35786,2.87198,0
2.84435,4.68786,1.22301,4.37227,2.87748,0
2.84793,4.67419,1.21807,4.38663,2.88297,0
2.85149,4.66042,1.21318,4.40094,2.88847,0
2.85504,4.64657,1.20837,4.41520,2.89396,0
2.85858,4.63262,1.20361,4.42942,2.89946,0
2.86211,4.61858,1.19892,4.44360,2.90496,0
2.86562,4.60446,1.19430,4.45773,2.91046,0
2.86913,4.59024,1.18973,4.47181,2.91596,0
2.87262,4.57594,1.18523,4.48585,2.92147,0
2.87611,4.56155,1.18079,4.49985,2.92697,0
2.87958,4.54708,1.17641,4.51380,2.93247,0
2.88304,4.53252,1.17210,4.52771,2.93798,0
2.88649,4.51788,1.16784,4.54158,2.94349,0
2.88994,4.50316,1.16365,4.55540,2.94899,0
2.89337,4.48835,1.15951,4.56919,2.95450,0
2.89679,4.47347,1.15544,4.58293,2.96001,0
2.90020,4.45850,1.15142,4.59663,2.96552,0
2.90359,4.44346,1.14747,4.61029,2.97103,0
2.90698,4.42834,1.14357,4.62391,2.97655,0
2.91036,4.41314,1.13972,4.63749,2.98206,0
2.91373,4.39787,1.13594,4.65103,2.98758,0
2.91709,4.38252,1.13221,4.66453,2.99309,0
2.92044,4.36710,1.12854,4.67799,2.99861,0
2.92378,4.35160,1.12493,4.69142,3.00412,0
2.92711,4.33603,1.12137,4.70480,3.00964,0
2.93044,4.32040,1.11787,4.71815,3.01516,0
2.93375,4.30469,1.11442,4.73146,3.02068,0
2.93705,4.28891,1.11103,4.74473,3.02620,0
2.94034,4.27306,1.10769,4.75796,3.03173,0
2.94363,4.25715,1.10440,4.77116,3.03725,0
2.94690,4.24117,1.10117,4.77116,3.04277,0
2.95018,4.22512,1.09799,4.75796,3.04831,0
2.95346,4.20901,1.09486,4.74473,3.05388,0
2.95676,4.19284,1.09179,4.73146,3.05949,0
2.96006,4.17660,1.08877,4.71815,3.06512,0
2.96337,4.16031,1.08579,4.70480,3.07079,0
2.96669,4.14395,1.08287,4.69142,3.07649,0
2.97002,4.12753,1.08000,4.67799,3.08051,0
2.97337,4.11105,1.07718,4.66453,3.08052,0
2.97672,4.09452,1.07440,4.65103,3.08055,0
2.98008,4.07792,1.07168,4.63749,3.08060,0
2.98344,4.06128,1.06901,4.62391,3.08066,0
2.98682,4.04457,1.06638,4.61029,3.08074,0
2.99021,4.02782,1.06380,4.59663,3.08084,0
2.99361,4.01101,1.06127,4.58293,3.08096,0
2.99702,3.99414,1.05878,4.56919,3.08110,0
3.00044,3.97723,1.05635,4.55540,3.08125,0
3.00387,3.96026,1.05395,4.54158,3.08142,0
3.00731,3.94325,1.05161,4.52771,3.08161,0
3.01077,3.92619,1.04931,4.51380,3.08182,0
3.01423,3.90908,1.04705,4.49985,3.08204,0
3.01770,3.89192,1.04484,4.48585,3.08229,0
3.02118,3.87472,1.04267,4.47181,3.08255,0
3.02468,3.85747,1.04054,4.45773,3.08283,0
3.02818,3.84018,1.03846,4.44360,3.08314,0
3.03170,3.82285,1.03642,4.42942,3.08346,0
3.03523,3.80547,1.03442,4.41520,3.08380,0
3.03877,3.78806,1.03247,4.40094,3.08416,0
3.04232,3.77060,1.03056,4.38663,3.08455,0
3.04588,3.75311,1.02868,4.37227,3.08495,0
3.04946,3.73557,1.02685,4.35786,3.08537,0
3.05304,3.71800,1.02506,4.34341,3.08581,0
3.05664,3.70039,1.02331,4.32890,3.08628,0
3.06025,3.68275,1.02159,4.31435,3.08676,0
3.06387,3.66508,1.01992,4.29975,3.08727,0
3.06750,3.64737,1.01828,4.28510,3.08780,0
3.07115,3.62962,1.01668,4.27040,3.08835,0
3.07481,3.61185,1.01512,4.25565,3.08892,0
3.07848,3.59405,1.01360,4.24085,3.08951,0
3.08217,3.57621,1.01211,4.22600,3.09013,0
3.08587,3.55835,1.01066,4.21109,3.09077,0
3.08958,3.54046,1.00925,4.19613,3.09143,0
3.09330,3.52254,1.00787,4.18112,3.09212,0
3.09704,3.50460,1.00653,4.16605,3.09283,0
3.10079,3.48663,1.00522,4.15093,3.09356,0
3.10455,3.46864,1.00394,4.13575,3.09432,0
3.10833,3.45062,1.00270,4.12052,3.09510,0
3.11212,3.43259,1.00149,4.10523,3.09590,0
3.11593,3.41453,1.00032,4.08988,3.09673,0
3.11975,3.39645,0.99917,4.07448,3.09759,0
3.12359,3.37835,0.99806,4.05901,3.09847,0
3.12744,3.36024,0.99698,4.04349,3.09938,0
3.13130,3.34210,0.99594,4.02791,3.10031,0
3.13518,3.32395,0.99492,4.01227,3.10127,0
3.13908,3.30579,0.99393,3.99656,3.10225,0
3.14299,3.28761,0.99298,3.98080,3.10326,0
3.14691,3.26942,0.99205,3.96497,3.10430,0
3.15085,3.25121,0.99115,3.94908,3.10537,0
3.15481,3.23299,0.99028,3.93312,3.10646,0
3.15878,3.21476,0.98944,3.91710,3.10758,0
